0.08436,0.12183,0.18944,0.13111,0.04495,0.07497,0.08279,0.05442,0.06111,0.06874000000000001,0.07158,0.07316,0.07512,0.0753,0.07268,0.06816000000000001,0.06264,0.05693,0.05175,0.04769,0.045320000000000006,0.045140000000000007,0.0471,0.050600000000000006,0.05492,0.05935000000000001,0.06331,0.06637000000000001,0.06808,0.06815,0.06670000000000001,0.06431,0.06157000000000001,0.059030000000000006,0.05722000000000001,0.05651,0.05723,0.05958000000000001,0.06324,0.06747,0.07153000000000001,0.07474,0.07642,0.07604000000000001,0.07316,0.06748000000000001,0.05929,0.04939,0.038610000000000005,0.02774,0.017550000000000003,0.008660000000000001,0.00163,-0.00309,-0.005580000000000001,-0.006350000000000001,-0.00591,-0.004770000000000001,-0.0034,-0.0021200000000000004,-0.00121,-0.00085,-0.00085,-0.00076,-0.00021,0.00113,0.00355,0.00722,0.01223,0.01852,0.025630000000000003,0.032810000000000006,0.03941,0.04483,0.04854000000000001,0.050100000000000006,0.04913000000000001,0.04538,0.03912,0.030980000000000004,0.02164,0.01173,0.00185,-0.00753,-0.015850000000000003,-0.02261,-0.02753,-0.0305,-0.03146,-0.03033,-0.02702,-0.02135,-0.01325,-0.0026400000000000004,0.01053,0.026220000000000004,0.04433,0.06463,0.08691,0.11099,0.1366,0.16334,0.1905,0.21694,0.24158,0.26344,0.28138,0.29423000000000005,0.30094000000000004,0.30053,0.29287,0.27873000000000003,0.25912,0.23519,0.20831,0.17988,0.15141,0.12446,0.10003,0.07843,0.0597,0.0437,0.03003,0.0183,0.00803,-0.00135,-0.0101,-0.01813,-0.02528,-0.031290000000000005,-0.03572,-0.03815,-0.03821,-0.035620000000000006,-0.03059,-0.02379,-0.01593,-0.00776,-0.00014,0.006130000000000001,0.01031,0.01176,0.01046,0.0069700000000000005,0.00189,-0.0041,-0.01033,-0.016190000000000003,-0.02108,-0.02443,-0.026050000000000004,-0.02613,-0.02498,-0.02293,-0.0203,-0.017320000000000002,-0.01429,-0.01154,-0.00937,-0.008,-0.00757,-0.008150000000000001,-0.00987,-0.01285,-0.017140000000000002,-0.0227,-0.02924,-0.03626,-0.04331,-0.04996,-0.05576,-0.06034,-0.06335,-0.06454,-0.06404,-0.06224,-0.05958000000000001,-0.05643000000000001,-0.0532,-0.0502,-0.04773,-0.046000000000000006,-0.044910000000000005,-0.044070000000000005,-0.04305,-0.0415,-0.039020000000000006,-0.03527,-0.02993,-0.02275,-0.01379,-0.0034900000000000005,0.00767,0.01916,0.030410000000000003,0.04079,0.04965000000000001,0.05632,0.06043,0.06205000000000001,0.061340000000000006,0.05861,0.05433,0.04911,0.04372,0.03898,0.035550000000000005,0.033690000000000005,0.033510000000000005,0.03497,0.03771,0.0412,0.04468,0.04731,0.04843,0.04782,0.0454,0.04129,0.03592,0.03,0.02441,0.02014,0.017830000000000002,0.017570000000000002,0.019250000000000003,0.02258,0.02696,0.03153,0.03529,0.03713,0.03637,0.032990000000000005,0.02719,0.01938,0.01022,0.00051,-0.0088,-0.016620000000000003,-0.02221,-0.02534,-0.02603,-0.02449,-0.02106,-0.0161,-0.01014,-0.00381,0.0022700000000000003,0.00756,0.01172,0.01453,0.01572,0.01497,0.01201,0.0066500000000000005,-0.00086,-0.00983,-0.01958,-0.02943,-0.038500000000000006,-0.045770000000000005,-0.05018,-0.05063,-0.04674,-0.03896,-0.02798,-0.01464,-8e-05,0.01447,0.02756,0.03761,0.0435,0.04481,0.04146,0.033710000000000004,0.021980000000000003,0.006790000000000001,-0.01106,-0.030570000000000003,-0.05056,-0.0699,-0.08763000000000001,-0.10301,-0.11539,-0.12423,-0.12913000000000002,-0.12985000000000002,-0.12663000000000002,-0.12014,-0.11106,-0.10008,-0.0878,-0.07473,-0.06131,-0.04789,-0.03445,-0.020610000000000003,-0.006030000000000001,0.009580000000000002,0.02647,0.04471000000000001,0.06415,0.08444,0.10458,0.12309,0.13856,0.14974,0.15541000000000002,0.15464,0.14678000000000002,0.13145,0.10932,0.08197,0.05104,0.01816,-0.01512,-0.0475,-0.07775,-0.10471,-0.12792,-0.14751,-0.16373,-0.17697,-0.18751,-0.19542,-0.20086,-0.20405,-0.20525,-0.20486,-0.20324,-0.20075,-0.19784,-0.19508,-0.19308,-0.19248,-0.19365,-0.1966,-0.2012,-0.20726,-0.21447,-0.22242,-0.23059,-0.23828,-0.24489,-0.25007,-0.25364000000000003,-0.25557,-0.25597000000000003,-0.25509000000000004,-0.25334,-0.25128,-0.24961,-0.2489,-0.24958,-0.25191,-0.25595,-0.2616,-0.26864000000000005,-0.2767,-0.28529000000000004,-0.29397,-0.30237,-0.31027000000000005,-0.31764000000000003,-0.3246,-0.33132,-0.33804,-0.34492,-0.35197,-0.35914,-0.36626,-0.37300000000000005,-0.37894000000000005,-0.3836000000000001,-0.38648,-0.38727000000000006,-0.38592,-0.38251,-0.37724,-0.37041,-0.36240000000000006,-0.35371,-0.34493,-0.33671,-0.32961,-0.32407,-0.32041,-0.31889,-0.31967,-0.32278,-0.32802000000000003,-0.33481000000000005,-0.34225000000000005,-0.34951000000000004,-0.35587,-0.36063,-0.36323000000000005,-0.36327,-0.36055,-0.35551000000000005,-0.34907000000000005,-0.34213000000000005,-0.33554,-0.33007000000000003,-0.32626000000000005,-0.32454000000000005,-0.32512,-0.32756,-0.33093,-0.33434,-0.33701000000000003,-0.33824000000000004,-0.33767,-0.33506,-0.33041000000000004,-0.32438,-0.31806,-0.31244000000000005,-0.30837000000000003,-0.30653,-0.30725,-0.31065000000000004,-0.31660000000000005,-0.32429,-0.33242000000000005,-0.33981,-0.3455,-0.34869000000000006,-0.34897,-0.34613000000000005,-0.34022,-0.33204,-0.32295,-0.31420000000000003,-0.30689000000000005,-0.3019,-0.29977000000000004,-0.30087,-0.30534,-0.31262,-0.32155,-0.33103000000000005,-0.34001000000000003,-0.34768000000000004,-0.35353,-0.35718000000000005,-0.35837,-0.35735000000000006,-0.3548,-0.35138,-0.34771,-0.34421,-0.341,-0.33811,-0.33548,-0.33282,-0.32970000000000005,-0.32574,-0.32070000000000004,-0.31447,-0.30723,-0.29932000000000003,-0.29116,-0.28340000000000004,-0.27680000000000005,-0.27201,-0.26953000000000005,-0.26977,-0.27289,-0.27893,-0.2878,-0.29904,-0.3119,-0.32564000000000004,-0.33949,-0.35275,-0.36481,-0.3751,-0.38308,-0.38843000000000005,-0.39110000000000006,-0.39111,-0.38860000000000006,-0.38381,-0.37704,-0.36858,-0.35874,-0.34765,-0.33519000000000004,-0.32123,-0.30561000000000005,-0.28789000000000003,-0.26746000000000003,-0.24386,-0.21671,-0.18651,-0.15468,-0.12275,-0.09234,-0.06549,-0.04438,-0.031160000000000004,-0.0279,-0.035230000000000004,-0.05222,-0.07752,-0.10941,-0.14575,-0.18423,-0.22229,-0.25724,-0.2873,-0.31194000000000005,-0.33106,-0.34502000000000005,-0.35455000000000003,-0.36058,-0.36433,-0.36723000000000006,-0.37038,-0.37423,-0.37895,-0.3844,-0.39008,-0.39524,-0.39898000000000006,-0.4003,-0.39858,-0.39381,-0.38625,-0.37637,-0.3650600000000001,-0.35348,-0.34293,-0.33478,-0.32996000000000003,-0.32861,-0.33061,-0.33556,-0.34267000000000003,-0.35091000000000006,-0.35903,-0.36566,-0.36983,-0.37124,-0.36991,-0.36608,-0.36038,-0.35367000000000004,-0.34701000000000004,-0.34155,-0.33811,-0.33695,-0.33807000000000004,-0.34125000000000005,-0.34594,-0.35139000000000004,-0.35673000000000005,-0.36102,-0.36362000000000005,-0.36438,-0.36332,-0.36058,-0.3566,-0.35191000000000006,-0.34713000000000005,-0.34286000000000005,-0.33941000000000004,-0.33661,-0.33422,-0.33192000000000005,-0.32924000000000003,-0.32564000000000004,-0.32057,-0.31351,-0.30431,-0.29324,-0.28069000000000005,-0.26711,-0.25305,-0.23904000000000003,-0.2257,-0.21365,-0.20331,-0.19484,-0.18827,-0.18354,-0.18056,-0.17921,-0.17929,-0.18046,-0.18226,-0.18413,-0.18558,-0.1862,-0.18559,-0.18337,-0.1793,-0.17324,-0.16551,-0.15680000000000002,-0.14782,-0.13921,-0.13165,-0.12572,-0.12192,-0.12064,-0.12167,-0.12424,-0.12754,-0.13077,-0.13309,-0.13377,-0.13213,-0.12762,-0.12026,-0.11067,-0.09957,-0.08770000000000001,-0.07585,-0.06467,-0.0548,-0.04684000000000001,-0.04093,-0.03678,-0.03402,-0.032220000000000006,-0.03097,-0.02994,-0.02882,-0.0273,-0.025300000000000003,-0.02292,-0.0203,-0.017560000000000003,-0.01477,-0.01195,-0.009070000000000002,-0.006070000000000001,-0.0028100000000000004,0.00088,0.005180000000000001,0.01022,0.016020000000000003,0.02252,0.02961,0.037160000000000006,0.045070000000000006,0.053320000000000006,0.06192,0.07088000000000001,0.08041000000000001,0.0908,0.10239,0.1155,0.13021000000000002,0.14621,0.16309,0.18041,0.19751,0.21366,0.22804,0.23979000000000003,0.2484,0.25388,0.25646,0.2565,0.25455,0.25122,0.24726,0.24356,0.24091,0.2398,0.24058,0.24346,0.24847,0.25553000000000003,0.26451,0.27519000000000005,0.28746000000000005,0.30142,0.31721000000000005,0.33498,0.35513000000000006,0.37819,0.40462,0.43483,0.46855,0.5047,0.54205,0.5792700000000001,0.6147400000000001,0.64671,0.67339,0.69298,0.7045800000000001,0.70842,0.7050700000000001,0.6954300000000001,0.6806300000000001,0.6619,0.64068,0.6186,0.5969300000000001,0.5764,0.5574600000000001,0.5403300000000001,0.5251100000000001,0.51187,0.5005700000000001,0.49111,0.4834000000000001,0.4774600000000001,0.47335,0.47115,0.47099,0.47294,0.47698,0.483,0.49063000000000007,0.49927,0.5083300000000001,0.51727,0.52556,0.53276,0.5385000000000001,0.5425500000000001,0.5449900000000001,0.54623,0.54668,0.5467200000000001,0.54667,0.5467200000000001,0.54703,0.54766,0.54844,0.5489700000000001,0.5488900000000001,0.5479,0.5457500000000001,0.54235,0.53769,0.5319,0.5254000000000001,0.5188,0.5127,0.50758,0.5039,0.50197,0.50195,0.5038600000000001,0.50727,0.51141,0.5155500000000001,0.51905,0.52127,0.5217,0.5199900000000001,0.51588,0.5097200000000001,0.5023500000000001,0.49463,0.48737,0.48141000000000006,0.47748,0.47621,0.47816,0.48328,0.49092,0.5003700000000001,0.5108400000000001,0.52153,0.5317500000000001,0.54083,0.5480900000000001,0.55325,0.5564100000000001,0.55778,0.5576800000000001,0.55639,0.5541,0.551,0.5473300000000001,0.54332,0.53917,0.53507,0.53117,0.5276700000000001,0.52485,0.52297,0.52231,0.5229,0.52456,0.5270400000000001,0.53007,0.5333300000000001,0.5365000000000001,0.5392800000000001,0.5414,0.54283,0.54378,0.54457,0.54549,0.5468500000000001,0.54884,0.55157,0.5550400000000001,0.55901,0.56303,0.56666,0.5694800000000001,0.57118,0.57165,0.5709500000000001,0.56932,0.5673100000000001,0.56566,0.56498,0.5658000000000001,0.56845,0.5730000000000001,0.5793,0.58696,0.5952000000000001,0.60304,0.60968,0.61445,0.6169300000000001,0.6170100000000001,0.6148,0.61063,0.60524,0.59955,0.5943400000000001,0.5902400000000001,0.58762,0.58653,0.58686,0.58836,0.59055,0.59291,0.59502,0.5966100000000001,0.59763,0.5983400000000001,0.5990700000000001,0.60023,0.6022200000000001,0.60521,0.60926,0.6143000000000001,0.62007,0.62611,0.6319100000000001,0.63685,0.6404500000000001,0.64249,0.64288,0.64165,0.6389600000000001,0.63502,0.6301300000000001,0.6246700000000001,0.6190500000000001,0.6136400000000001,0.6087600000000001,0.6047,0.60172,0.6001000000000001,0.6001000000000001,0.60196,0.6058,0.6116,0.61926,0.6286,0.63936,0.65122,0.6638200000000001,0.6767500000000001,0.68967,0.70242,0.71487,0.7270000000000002,0.73892,0.75081,0.7628100000000002,0.77499,0.78719,0.7988900000000002,0.80952,0.81846,0.82496,0.82828,0.82783,0.8231600000000001,0.81444,0.80249,0.78824,0.77268,0.75692,0.7418800000000002,0.72842,0.71723,0.70835,0.7012100000000001,0.6951700000000001,0.68954,0.6836500000000001,0.67703,0.66934,0.66041,0.65063,0.64083,0.6318,0.6243200000000001,0.61907,0.6164900000000001,0.61684,0.62016,0.6258800000000001,0.6329400000000001,0.6403500000000001,0.6471800000000001,0.65258,0.65595,0.65685,0.655,0.65073,0.6448,0.6379400000000001,0.63083,0.62404,0.61794,0.6128,0.6087800000000001,0.60565,0.6029100000000001,0.60009,0.5967600000000001,0.59262,0.5875400000000001,0.58145,0.57432,0.5663600000000001,0.55791,0.54932,0.54088,0.5327900000000001,0.5251300000000001,0.51797,0.5114000000000001,0.50543,0.5000800000000001,0.49534000000000006,0.49122,0.48781,0.48528,0.48375,0.48332,0.48393,0.48540000000000005,0.48756,0.49023000000000005,0.49315,0.49604,0.49859,0.50056,0.50194,0.5028900000000001,0.5036,0.5042500000000001,0.5051100000000001,0.5064700000000001,0.50863,0.5119,0.5163000000000001,0.52164,0.52768,0.5341800000000001,0.5408200000000001,0.5472400000000001,0.55303,0.55781,0.5614800000000001,0.56425,0.56642,0.5683,0.5703,0.57286,0.57647,0.5816300000000001,0.5885400000000001,0.59704,0.60684,0.6175900000000001,0.6288800000000001,0.64027,0.65129,0.66141,0.6703100000000001,0.6778900000000001,0.6842100000000001,0.6893900000000001,0.69359,0.6969200000000001,0.6995600000000001,0.7017000000000001,0.7035800000000001,0.7053900000000001,0.7073,0.70945,0.7119700000000001,0.71506,0.71892,0.7237300000000002,0.72958,0.7364,0.74408,0.75245,0.7613200000000001,0.77045,0.77958,0.7884000000000002,0.79664,0.80413,0.8108,0.81659,0.82154,0.8256500000000001,0.8289900000000001,0.83162,0.83367,0.83522,0.83637,0.8371400000000001,0.83755,0.83755,0.83712,0.8362100000000001,0.83479,0.8329200000000001,0.8306500000000001,0.82805,0.82529,0.82266,0.82047,0.8190600000000001,0.8186700000000001,0.81929,0.82078,0.82295,0.82542,0.82761,0.8288000000000002,0.82812,0.82479,0.8183800000000001,0.8087,0.79575,0.77985,0.76156,0.74174,0.72153,0.7022400000000001,0.6850200000000001,0.67076,0.66008,0.6532300000000001,0.6501,0.65024,0.6529400000000001,0.6571600000000001,0.66195,0.6665700000000001,0.67049,0.67361,0.6762900000000001,0.6791100000000001,0.6829400000000001,0.6886800000000001,0.69686,0.7077100000000001,0.72108,0.7364400000000002,0.75279,0.76877,0.78263,0.7924500000000002,0.79658,0.79383,0.7835,0.76524,0.7391200000000001,0.70569,0.6659900000000001,0.62199,0.5761200000000001,0.53054,0.48704,0.4472100000000001,0.41231,0.38327000000000006,0.3607300000000001,0.34413000000000005,0.33197000000000004,0.32280000000000003,0.31529,0.30818,0.30044000000000004,0.29111000000000004,0.27933,0.26514000000000004,0.24936,0.23289,0.21662,0.20143,0.18809,0.17737000000000003,0.16997,0.1659,0.16445,0.16477,0.166,0.16716,0.16733,0.16557000000000002,0.16097,0.15318,0.14256000000000002,0.12959,0.11491,0.09921,0.08318,0.06753,0.05304,0.040150000000000005,0.0289,0.0192,0.01081,0.0034600000000000004,-0.00302,-0.008870000000000001,-0.01434,-0.01967,-0.02507,-0.03071,-0.03669,-0.04315,-0.050350000000000006,-0.05859,-0.06822,-0.07944000000000001,-0.09215000000000001,-0.10615,-0.12117,-0.1368,-0.15249,-0.16749,-0.18092,-0.19193,-0.19999,-0.2048,-0.20629,-0.2046,-0.20011,-0.19342,-0.18545,-0.17737000000000003,-0.17036,-0.16537,-0.16306,-0.16386,-0.16789,-0.17503,-0.18492,-0.19674,-0.20941,-0.22202,-0.23384,-0.24443,-0.25367,-0.26161,-0.26837,-0.27439,-0.28012000000000004,-0.28593,-0.29208,-0.29848,-0.30474,-0.31039,-0.31489,-0.31783,-0.31913,-0.31887000000000004,-0.31727000000000005,-0.31489,-0.31254000000000004,-0.31118,-0.31184,-0.31523,-0.32149000000000005,-0.33054,-0.34207000000000004,-0.35546000000000005,-0.36986,-0.38423,-0.3974,-0.40844,-0.41691000000000006,-0.42266,-0.42575,-0.42654,-0.42557000000000006,-0.42356,-0.42140000000000005,-0.41995,-0.41985000000000006,-0.42154,-0.42523000000000005,-0.43094,-0.43859,-0.44794000000000006,-0.45862,-0.4701,-0.48180000000000006,-0.49322,-0.50397,-0.5137700000000001,-0.5224000000000001,-0.52971,-0.5355800000000001,-0.54017,-0.5438000000000001,-0.5468200000000001,-0.54956,-0.55234,-0.55547,-0.55925,-0.56396,-0.5696,-0.57589,-0.5824900000000001,-0.58906,-0.5951500000000001,-0.6002900000000001,-0.60402,-0.6059100000000001,-0.60594,-0.6046,-0.6024900000000001,-0.60028,-0.5987800000000001,-0.59887,-0.60143,-0.60736,-0.6170100000000001,-0.63009,-0.64609,-0.6643300000000001,-0.6839500000000001,-0.7040400000000001,-0.7236,-0.74159,-0.75735,-0.77079,-0.7819800000000001,-0.79112,-0.79866,-0.80513,-0.81105,-0.81691,-0.8226500000000002,-0.82763,-0.83113,-0.83244,-0.83057,-0.8244800000000002,-0.8133,-0.79637,-0.7742500000000001,-0.74873,-0.72181,-0.69554,-0.6722400000000001,-0.65415,-0.6434200000000001,-0.64205,-0.65061,-0.6682,-0.6935500000000001,-0.7251,-0.76117,-0.8002800000000002,-0.84089,-0.8814200000000002,-0.92097,-0.95933,-0.99645,-1.03249,-1.0675,-1.10125,-1.1334,-1.16351,-1.19095,-1.21509,-1.23538,-1.25142,-1.26302,-1.27036,-1.27393,-1.27456,-1.2735200000000002,-1.27218,-1.2717,-1.27306,-1.27696,-1.28374,-1.29348,-1.30596,-1.32042,-1.3359200000000002,-1.35162,-1.36682,-1.38107,-1.39421,-1.40615,-1.4169600000000002,-1.42693,-1.43642,-1.44572,-1.45505,-1.46447,-1.47393,-1.48335,-1.49265,-1.50172,-1.51056,-1.51921,-1.52775,-1.53628,-1.5449100000000002,-1.55374,-1.56289,-1.57246,-1.58251,-1.5930700000000002,-1.6041,-1.61565,-1.6278100000000002,-1.64063,-1.6541,-1.66802,-1.68195,-1.69544,-1.70809,-1.71938,-1.72877,-1.73578,-1.7399700000000002,-1.74138,-1.7405,-1.73792,-1.73428,-1.7303100000000002,-1.72667,-1.72408,-1.72318,-1.7242400000000002,-1.7271200000000002,-1.7316300000000002,-1.73744,-1.7442400000000002,-1.75178,-1.75984,-1.76819,-1.7767800000000002,-1.7856600000000002,-1.79486,-1.80442,-1.81436,-1.82456,-1.8349,-1.84513,-1.85496,-1.8641,-1.87238,-1.87967,-1.88592,-1.89112,-1.89532,-1.89867,-1.9015,-1.90416,-1.90694,-1.91007,-1.91376,-1.91822,-1.92369,-1.93036,-1.93821,-1.94706,-1.95671,-1.96697,-1.97761,-1.98833,-1.99873,-2.0083900000000003,-2.01701,-2.0244600000000004,-2.03067,-2.0356,-2.03931,-2.04197,-2.0438400000000003,-2.0452000000000004,-2.0462900000000004,-2.0472,-2.0479800000000004,-2.04868,-2.04923,-2.04946,-2.04918,-2.04822,-2.0466900000000003,-2.04504,-2.0437700000000003,-2.04334,-2.04434,-2.04746,-2.0533400000000004,-2.06265,-2.07545,-2.09121,-2.10921,-2.12868,-2.1487100000000003,-2.16835,-2.18652,-2.20203,-2.2139900000000003,-2.22195,-2.22575,-2.22542,-2.22107,-2.21287,-2.20129,-2.18704,-2.17124,-2.15525,-2.14022,-2.1271600000000004,-2.117,-2.11052,-2.10826,-2.1105400000000003,-2.11686,-2.12604,-2.13695,-2.14847,-2.15957,-2.1694500000000003,-2.1773900000000004,-2.18279,-2.18568,-2.1866000000000003,-2.18612,-2.1847700000000003,-2.183,-2.18109,-2.17926,-2.17764,-2.1759000000000004,-2.1733,-2.1691200000000004,-2.1626800000000004,-2.15335,-2.14059,-2.12389,-2.10278,-2.0773,-2.048,-2.0155700000000003,-1.98082,-1.94459,-1.90773,-1.87129,-1.8365,-1.80462,-1.7767800000000002,-1.75385,-1.73646,-1.72521,-1.7205,-1.7224,-1.7306,-1.74391,-1.76056,-1.7789,-1.79746,-1.81482,-1.8299,-1.84189,-1.85044,-1.85639,-1.86162,-1.86788,-1.87675,-1.88974,-1.90789,-1.93183,-1.96172,-1.99618,-2.0326600000000004,-2.06874,-2.10229,-2.1312200000000003,-2.15398,-2.16956,-2.1775900000000004,-2.17985,-2.1798300000000004,-2.1808500000000004,-2.18585,-2.19773,-2.21879,-2.25077,-2.2947,-2.34864,-2.40808,-2.4684000000000004,-2.52516,-2.57393,-2.61093,-2.63266,-2.63602,-2.62074,-2.5891900000000003,-2.54415,-2.48861,-2.42558,-2.35755,-2.28712,-2.21686,-2.14779,-2.07944,-2.01102,-1.94157,-1.87014,-1.79617,-1.71906,-1.63824,-1.5539600000000002,-1.4672,-1.37906,-1.2906700000000002,-1.2031900000000002,-1.1175400000000002,-1.03456,-0.95494,-0.8787100000000002,-0.8053500000000001,-0.73428,-0.6649600000000001,-0.5968500000000001,-0.5295500000000001,-0.46276000000000006,-0.39628,-0.33052000000000004,-0.2664,-0.20484,-0.14665,-0.09262,-0.04333,0.00073,0.03917,0.07221000000000001,0.10056,0.12498,0.14624,0.16506,0.18198,0.19752,0.21219,0.22609,0.23905,0.25087000000000004,0.26137000000000005,0.27065,0.27918000000000004,0.28756000000000004,0.29644000000000004,0.30659,0.31864000000000003,0.33326,0.35121,0.37273,0.39743,0.42474000000000006,0.45389,0.48494,0.51929,0.55878,0.60565,0.6627000000000001,0.73333,0.8217000000000002,0.93257,1.07051,1.23886,1.43982,1.6743,1.94262,2.24425,2.57732,2.93867,3.32248,3.72123,4.127800000000001,4.5356000000000005,4.93846,5.33105,5.7083900000000005,6.06604,6.40186,6.71562,7.00741,7.27757,7.52629,7.75324,7.95811,8.141070000000001,8.30202,8.44124,8.56009,8.65996,8.743680000000001,8.81456,8.87509,8.927840000000002,8.972840000000001,9.00907,9.0362,9.05447,9.068600000000002,9.08544,9.11187,9.15348,9.21045,9.27983,9.357380000000001,9.43992,9.529140000000002,9.62926,9.74648,9.88555,10.04692,10.22945,10.4275,10.63408,10.84255,11.04669,11.24777,11.43463,11.58953,11.71747,11.80785,11.84051,11.81444,11.66572,11.31533,10.84669,10.43229,10.12676,9.88587,9.70483,9.59955,9.51336,9.38236,9.25576,9.24262,9.36002,9.52504,9.69506,9.901110000000001,10.15473,10.43563,10.72765,11.01001,11.25706,11.44665,11.56247,11.60456,11.58631,11.52316,11.4294,11.31224,11.1698,10.99815,10.79361,10.55091,10.26405,9.92744,9.53259,9.069070000000002,8.53283,7.92547,7.26001,6.573980000000001,5.91652,5.33344,4.85873,4.49244,4.204680000000001,3.95976,3.72401,3.47665,3.21456,2.9402700000000004,2.6573200000000003,2.37036,2.08223,1.79317,1.50319,1.2145,0.93193,0.66432,0.42337,0.21813,0.05114,-0.08191000000000001,-0.19243,-0.29689000000000004,-0.4099,-0.5422600000000001,-0.6992600000000001,-0.8788100000000002,-1.07586,-1.28096,-1.4812,-1.6652300000000002,-1.82276,-1.95342,-2.06962,-2.1866100000000004,-2.3208200000000003,-2.47929,-2.6516,-2.82176,-2.97143,-3.0864200000000004,-3.16766,-3.2235500000000004,-3.26562,-3.30583,-3.34804,-3.39014,-3.42858,-3.4591200000000004,-3.4801,-3.49305,-3.4995100000000003,-3.5006800000000005,-3.4976800000000003,-3.49039,-3.47873,-3.46303,-3.4433,-3.4197900000000003,-3.39293,-3.3630600000000004,-3.3307,-3.2962100000000003,-3.2597000000000005,-3.2212,-3.18066,-3.13824,-3.09452,-3.0502,-3.00618,-2.96355,-2.9237400000000004,-2.88843,-2.85958,-2.83901,-2.828,-2.82737,-2.83741,-2.85809,-2.8889,-2.9286700000000003,-2.9755800000000003,-3.02681,-3.07913,-3.1298000000000004,-3.1766,-3.2177,-3.2518900000000004,-3.2785900000000003,-3.29788,-3.31158,-3.32268,-3.3339000000000003,-3.34759,-3.36561,-3.38899,-3.4184400000000004,-3.4542,-3.49513,-3.53922,-3.5845800000000003,-3.62953,-3.67306,-3.71493,-3.75515,-3.79398,-3.83207,-3.87003,-3.90818,-3.94654,-3.98444,-4.02054,-4.05323,-4.08066,-4.10113,-4.113580000000001,-4.11748,-4.11275,-4.10004,-4.08045,-4.055490000000001,-4.02692,-3.99646,-3.96534,-3.934460000000001,-3.90439,-3.875150000000001,-3.84645,-3.8179,-3.78911,-3.76013,-3.7316,-3.70438,-3.67939,-3.65795,-3.64145,-3.63113,-3.62805,-3.63216,-3.64232,-3.65719,-3.67534,-3.69515,-3.71512,-3.73377,-3.74978,-3.7628,-3.77352,-3.78272,-3.79125,-3.79991,-3.80926,-3.81985,-3.83215,-3.84602,-3.86074,-3.87549,-3.88941,-3.90175,-3.91199,-3.91963,-3.92414,-3.92519,-3.92254,-3.916,-3.90534,-3.89031,-3.87057,-3.84581,-3.81574,-3.78005,-3.7384,-3.69055,-3.63634,-3.5755700000000004,-3.50801,-3.43345,-3.3516000000000004,-3.26251,-3.16663,-3.06462,-2.95737,-2.84588,-2.73138,-2.6154200000000003,-2.49989,-2.38701,-2.27898,-2.17767,-2.08456,-2.0009400000000004,-1.92778,-1.86558,-1.81433,-1.77283,-1.7390200000000002,-1.71097,-1.68693,-1.6653700000000002,-1.6451000000000002,-1.62513,-1.60469,-1.58414,-1.56463,-1.54727,-1.53309,-1.52286,-1.51699,-1.51582,-1.5195900000000002,-1.52794,-1.54011,-1.5553500000000002,-1.57293,-1.59235,-1.61337,-1.63573,-1.65926,-1.6839100000000002,-1.70968,-1.73649,-1.7642000000000002,-1.7924400000000003,-1.8207,-1.8484,-1.87489,-1.89951,-1.92176,-1.94126,-1.95777,-1.9712,-1.9816,-1.98912,-1.99405,-1.99682,-1.99794,-1.99778,-1.9966,-1.99461,-1.99205,-1.9891,-1.98586,-1.98201,-1.9767,-1.96907,-1.95829,-1.94336,-1.9232,-1.89655,-1.86203,-1.81877,-1.76673,-1.70626,-1.6380800000000002,-1.5632,-1.48294,-1.39912,-1.31407,-1.23052,-1.15104,-1.07768,-1.01189,-0.95483,-0.90721,-0.86919,-0.84032,-0.8187000000000002,-0.8015000000000002,-0.7861,-0.77021,-0.75184,-0.72948,-0.7017500000000001,-0.66754,-0.6269800000000001,-0.5812,-0.53142,-0.47889,-0.42454,-0.36892,-0.31274,-0.25685,-0.20203,-0.14911000000000002,-0.09882,-0.05183,-0.00916,0.02799,0.0585,0.08139,0.0965,0.10451,0.10629,0.10288,0.09566,0.08619,0.07617,0.06741000000000001,0.06108,0.05757,0.056990000000000006,0.05916,0.06364,0.06983,0.07686000000000001,0.08369,0.08945,0.09366,0.09607,0.09675,0.09591000000000001,0.09385,0.09109,0.08838000000000001,0.08681000000000001,0.08775,0.09244,0.10185,0.11704,0.13904000000000002,0.16876000000000002,0.20692,0.25325000000000003,0.30633000000000005,0.3645600000000001,0.42621,0.48923000000000005,0.55145,0.6105,0.66391,0.7101400000000001,0.74903,0.78085,0.8062300000000001,0.82632,0.8425300000000001,0.85665,0.8707800000000001,0.88653,0.9045,0.92476,0.94698,0.97027,0.99342,1.01487,1.03272,1.04528,1.05163,1.05132,1.04441,1.03142,1.01324,0.9911000000000002,0.9666,0.9414800000000002,0.91725,0.89506,0.87565,0.8595,0.84678,0.8374300000000001,0.83112,0.82705,0.82423,0.82184,0.81925,0.81601,0.81181,0.80646,0.79992,0.79266,0.78558,0.77958,0.7755,0.77409,0.7759100000000002,0.78149,0.79129,0.8054000000000001,0.82361,0.84557,0.8708300000000002,0.89906,0.9301600000000002,0.9640200000000002,1.00055,1.03949,1.0802,1.12199,1.16413,1.20564,1.24524,1.28143,1.31248,1.33692,1.35391,1.36297,1.36399,1.3571700000000002,1.34312,1.32292,1.29814,1.27076,1.24274,1.21564,1.19069,1.16874,1.15025,1.1353,1.12361,1.11419,1.10576,1.09723,1.08774,1.07678,1.06421,1.05001,1.03429,1.01741,0.99977,0.98163,0.96315,0.9442,0.92442,0.90344,0.88087,0.85654,0.83062,0.80343,0.77538,0.74708,0.7191900000000001,0.6923800000000001,0.6673800000000001,0.6446700000000001,0.6244700000000001,0.6068600000000001,0.5918300000000001,0.5792900000000001,0.56923,0.56159,0.55633,0.55344,0.55296,0.55486,0.55911,0.5656500000000001,0.57435,0.5849500000000001,0.5970300000000001,0.60985,0.6224900000000001,0.63412,0.64405,0.65158,0.6560600000000001,0.6570400000000001,0.65429,0.64846,0.6409400000000001,0.6331800000000001,0.62653,0.6224900000000001,0.6225200000000001,0.62805,0.64043,0.66,0.68601,0.7175,0.7533200000000002,0.7921100000000002,0.83247,0.8727600000000002,0.91122,0.94663,0.97855,1.00689,1.03188,1.05398,1.07383,1.09237,1.11076,1.13019,1.15159,1.17558,1.20251,1.23245,1.26532,1.30081,1.33848,1.37764,1.41756,1.45762,1.49741,1.5366700000000002,1.5752800000000002,1.61315,1.65013,1.68616,1.72121,1.75526,1.78833,1.82032,1.85116,1.88092,1.90986,1.93856,1.96788,1.99857,2.03135,2.0668,2.1053,2.14705,2.1920900000000003,2.24003,2.29029,2.3423,2.3954500000000003,2.44944,2.5042600000000004,2.5599700000000003,2.6167,2.6742600000000003,2.73194,2.7887700000000004,2.84355,2.89476,2.94063,2.97921,3.00835,3.02621,3.0315900000000005,3.02375,3.00247,2.9678600000000004,2.92022,2.8602,2.78873,2.70733,2.61791,2.5223,2.42225,2.3192700000000004,2.21476,2.11022,2.00733,1.90777,1.81311,1.72472,1.64373,1.57144,1.5092,1.45796,1.41829,1.38945,1.3696,1.35681,1.34918,1.3446,1.34098,1.33623,1.32832,1.31635,1.30056,1.28138,1.2593,1.23501,1.20918,1.18266,1.15637,1.13048,1.1043,1.07694,1.04741,1.01452,0.97697,0.93335,0.88213,0.82249,0.7545400000000002,0.6788000000000001,0.5961700000000001,0.50773,0.41466,0.31855,0.22132,0.12513,0.03205,-0.05623,-0.13842,-0.21326,-0.27957000000000004,-0.33653000000000005,-0.3837100000000001,-0.42207000000000006,-0.45379,-0.48107000000000005,-0.50607,-0.5310600000000001,-0.5582100000000001,-0.58972,-0.6277400000000001,-0.67313,-0.7253,-0.78331,-0.8458700000000001,-0.91161,-0.97918,-1.04694,-1.11302,-1.17579,-1.23411,-1.28716,-1.33443,-1.37551,-1.40999,-1.4376700000000002,-1.4585,-1.47273,-1.4808500000000002,-1.48328,-1.48047,-1.4727800000000002,-1.46056,-1.4443100000000002,-1.42459,-1.40205,-1.37729,-1.35093,-1.32349,-1.29551,-1.26748,-1.23975,-1.21257,-1.18588,-1.15943,-1.13296,-1.10625,-1.07916,-1.05165,-1.02373,-0.99541,-0.96681,-0.93807,-0.90933,-0.88068,-0.85211,-0.82349,-0.79468,-0.7656,-0.73633,-0.7072,-0.6785800000000001,-0.65088,-0.6246,-0.6002900000000001,-0.57848,-0.5596300000000001,-0.54381,-0.5306200000000001,-0.5195500000000001,-0.5100100000000001,-0.50131,-0.49279000000000006,-0.48375,-0.47356,-0.46196,-0.44909,-0.43518,-0.42055,-0.40556,-0.39053,-0.37574,-0.36143,-0.34748,-0.33351,-0.31913,-0.30398,-0.28765,-0.26987,-0.25042000000000003,-0.22924,-0.20677,-0.1838,-0.16112,-0.13946,-0.11953,-0.10191,-0.08713000000000001,-0.07558,-0.06715,-0.06129,-0.057420000000000006,-0.05498,-0.05351,-0.05263,-0.051980000000000005,-0.05118,-0.05012,-0.04885,-0.04746,-0.04601,-0.04443,-0.042600000000000006,-0.04042,-0.03783,-0.03483,-0.03152,-0.02804,-0.02457,-0.02143,-0.01893,-0.01742,-0.01718,-0.01839,-0.02108,-0.02523,-0.03078,-0.037570000000000006,-0.04546,-0.05426,-0.06386,-0.0742,-0.08532,-0.09725,-0.11005,-0.12381,-0.13867,-0.15471,-0.17201000000000002,-0.19051,-0.21002,-0.23034,-0.25124,-0.27241000000000004,-0.29352,-0.31421000000000004,-0.33412,-0.35299,-0.37068,-0.38713,-0.40231000000000006,-0.41632,-0.42927,-0.44134,-0.45272,-0.46359000000000006,-0.47411,-0.48441000000000006,-0.49456000000000006,-0.5045700000000001,-0.51439,-0.52403,-0.5335300000000001,-0.543,-0.55257,-0.5623100000000001,-0.57225,-0.58248,-0.5930500000000001,-0.60389,-0.6147600000000001,-0.62511,-0.63412,-0.6411,-0.6454700000000001,-0.6466700000000001,-0.64424,-0.6378400000000001,-0.62733,-0.6132000000000001,-0.5964600000000001,-0.5780700000000001,-0.55893,-0.53988,-0.52163,-0.50488,-0.49027,-0.47787,-0.46722,-0.4578,-0.44905000000000006,-0.44048,-0.43167000000000005,-0.42213000000000006,-0.41128,-0.39868,-0.38411,-0.36744,-0.34864,-0.32767,-0.30449000000000004
0.15565,0.12806,0.11676,0.1059,0.09308000000000001,0.08755,0.08752,0.09118,0.09765,0.10596,0.11544,0.1256,0.13540000000000002,0.14344,0.14901,0.15199,0.15253,0.15097000000000002,0.14738,0.14175,0.13434,0.12569000000000002,0.11646,0.1074,0.09911,0.09203,0.08678000000000001,0.08406000000000001,0.08444,0.08835000000000001,0.09563,0.10543,0.11686,0.12903,0.14085,0.15119,0.15885,0.16258,0.16178,0.15661,0.14749,0.13502,0.11998,0.10325,0.08586,0.06903000000000001,0.05373000000000001,0.04042,0.02934,0.02052,0.01381,0.00893,0.00553,0.00309,0.00123,-0.00015,-0.001,-0.00118,-0.00034,0.00195,0.006090000000000001,0.01248,0.02113,0.03153,0.043030000000000006,0.05491000000000001,0.06623000000000001,0.07604000000000001,0.08339,0.08735000000000001,0.08757,0.08431000000000001,0.07805,0.06939000000000001,0.05910000000000001,0.04799,0.03694,0.02692,0.01855,0.01199,0.007300000000000002,0.004410000000000001,0.00305,0.0027700000000000003,0.003,0.00306,0.00253,0.00146,4e-05,-0.00142,-0.00224,-0.00137,0.00251,0.01097,0.025210000000000003,0.04551,0.07167000000000001,0.10304,0.13843,0.17603,0.21336,0.24724,0.27415,0.2911,0.29591,0.28736,0.26480000000000004,0.2284,0.1794,0.12012,0.054950000000000006,-0.01054,-0.07145,-0.12373,-0.16384,-0.18915,-0.19787,-0.1891,-0.16509,-0.13057,-0.09013,-0.04809,-0.00841,0.02575,0.0515,0.06632,0.07021000000000001,0.06545000000000001,0.05450000000000001,0.03999,0.024350000000000004,0.009470000000000001,-0.00272,-0.01037,-0.01299,-0.01141,-0.006690000000000001,-0.00011,0.007110000000000001,0.01404,0.01975,0.023340000000000003,0.02464,0.02413,0.02242,0.02022,0.01821,0.016890000000000002,0.01668,0.017890000000000003,0.02035,0.023510000000000003,0.02678,0.029630000000000004,0.031560000000000005,0.032330000000000005,0.03175,0.029810000000000003,0.02689,0.02366,0.02073,0.01866,0.01785,0.01848,0.02062,0.0242,0.02884,0.0339,0.03883,0.04313,0.04646,0.04875,0.05002,0.05038,0.050190000000000005,0.049850000000000005,0.04971,0.05005,0.050960000000000005,0.05229,0.05376,0.05493000000000001,0.05527000000000001,0.05431,0.05169000000000001,0.04721,0.040830000000000005,0.032740000000000005,0.023340000000000003,0.01326,0.00337,-0.00544,-0.01245,-0.017150000000000002,-0.01914,-0.01824,-0.01452,-0.008320000000000001,-0.00055,0.00756,0.01494,0.02066,0.02389,0.02403,0.02065,0.0136,0.00355,-0.008190000000000001,-0.0204,-0.03196,-0.04182,-0.04911,-0.05312000000000001,-0.05333,-0.05012,-0.044640000000000006,-0.038020000000000005,-0.031360000000000006,-0.02569,-0.021890000000000003,-0.02076,-0.02301,-0.02856,-0.03661,-0.0463,-0.056740000000000006,-0.06708,-0.07658000000000001,-0.08444,-0.08986000000000001,-0.0925,-0.09253,-0.09027,-0.08615,-0.08059,-0.07399,-0.0669,-0.06,-0.05392,-0.049170000000000005,-0.04606,-0.04481,-0.04558,-0.0485,-0.05358,-0.06072,-0.06951,-0.07939,-0.08984,-0.10038,-0.11056,-0.11994,-0.12803,-0.13435,-0.13854000000000002,-0.14046,-0.14008,-0.13743000000000002,-0.13260000000000002,-0.12577000000000002,-0.11729,-0.10773,-0.0979,-0.08871000000000001,-0.08094000000000001,-0.07519,-0.07195,-0.07156000000000001,-0.07416,-0.07971,-0.08762,-0.09705,-0.10719,-0.11738,-0.12708,-0.13593000000000002,-0.14357,-0.14989000000000002,-0.15508000000000002,-0.1595,-0.16360000000000002,-0.16775,-0.17269,-0.17903000000000002,-0.18648,-0.19411,-0.19935,-0.20052,-0.19873,-0.19583,-0.19445,-0.19327,-0.18592,-0.16657000000000002,-0.13119,-0.08195,-0.02721,0.02556,0.06875,0.09647,0.10653,0.09675,0.06806000000000001,0.02382,-0.03411,-0.10383,-0.18339,-0.26689,-0.34323000000000004,-0.40139,-0.43277,-0.43654,-0.4192900000000001,-0.38682000000000005,-0.34432,-0.29756000000000005,-0.25082000000000004,-0.21049,-0.18379,-0.17087000000000002,-0.16736,-0.16825,-0.16718000000000002,-0.16254,-0.15717,-0.15233000000000002,-0.14897,-0.14708,-0.14492000000000002,-0.14195000000000002,-0.13872,-0.13568000000000002,-0.13345,-0.13260000000000002,-0.13322,-0.13514,-0.13808,-0.14158,-0.14495000000000002,-0.14757,-0.14897,-0.14872,-0.14678000000000002,-0.14353,-0.13940000000000002,-0.13491,-0.1307,-0.12734,-0.12535,-0.12521,-0.12698,-0.13026,-0.13461,-0.13951000000000002,-0.14436,-0.14858,-0.15153000000000003,-0.15258000000000002,-0.15144,-0.14823,-0.14318,-0.13662,-0.12896,-0.12057,-0.11196,-0.10369,-0.09628,-0.09013,-0.08554,-0.08267,-0.08175,-0.08303,-0.08666,-0.09268,-0.10082,-0.11052,-0.12121,-0.13234,-0.14320000000000002,-0.15299,-0.16092,-0.16623,-0.16867,-0.16864,-0.16663,-0.16323,-0.15927000000000002,-0.15573,-0.15368,-0.15424,-0.15796,-0.1647,-0.17412000000000002,-0.18567,-0.19859,-0.21198,-0.22479,-0.23588,-0.24451000000000003,-0.25048000000000004,-0.25381000000000004,-0.25472,-0.25355,-0.25075,-0.24687000000000003,-0.24254000000000003,-0.23827,-0.2343,-0.23077000000000003,-0.22771,-0.22512,-0.22300000000000003,-0.22132,-0.22005,-0.21917000000000003,-0.21877,-0.21893,-0.21971,-0.22119,-0.2234,-0.22633000000000003,-0.22991000000000003,-0.23397,-0.23824,-0.24249,-0.24652,-0.25011,-0.25304000000000004,-0.25518,-0.25641,-0.25686000000000003,-0.25689,-0.2568,-0.25694,-0.25770000000000004,-0.25953000000000004,-0.26287000000000005,-0.26812,-0.27530000000000004,-0.28401000000000004,-0.29381,-0.30417000000000005,-0.31445,-0.32388,-0.33166,-0.33697000000000005,-0.33945,-0.33927,-0.33678,-0.33247000000000004,-0.32699,-0.32108000000000003,-0.31564000000000003,-0.31163,-0.30972000000000005,-0.31010000000000004,-0.31279,-0.31765000000000004,-0.32441000000000003,-0.33274000000000004,-0.34215,-0.35203,-0.3618400000000001,-0.3712,-0.37986,-0.38771000000000005,-0.39461,-0.40042000000000005,-0.4051,-0.4087,-0.4115,-0.41401,-0.41661,-0.41961,-0.42358,-0.42925,-0.43735,-0.44849000000000006,-0.46249,-0.47818,-0.49436,-0.50983,-0.52281,-0.53108,-0.5323,-0.5240900000000001,-0.5057400000000001,-0.47871,-0.44501,-0.407,-0.36799,-0.33191000000000004,-0.30333000000000004,-0.28727,-0.28711000000000003,-0.30355000000000004,-0.33616,-0.38348,-0.44294000000000006,-0.51115,-0.58357,-0.65459,-0.71872,-0.77184,-0.81112,-0.8349700000000002,-0.84286,-0.83522,-0.81359,-0.78063,-0.74057,-0.6980000000000001,-0.6567700000000001,-0.61989,-0.5894900000000001,-0.56688,-0.55278,-0.54735,-0.54912,-0.55566,-0.5648000000000001,-0.5746600000000001,-0.58392,-0.59184,-0.59774,-0.60101,-0.6017100000000001,-0.6004,-0.5976,-0.59386,-0.58947,-0.5844900000000001,-0.57909,-0.57355,-0.5682400000000001,-0.5635600000000001,-0.55988,-0.5574100000000001,-0.5564300000000001,-0.5571600000000001,-0.5597300000000001,-0.56408,-0.56971,-0.57567,-0.5810500000000001,-0.5850500000000001,-0.58687,-0.58586,-0.5814600000000001,-0.57321,-0.5612600000000001,-0.54634,-0.5292600000000001,-0.5108600000000001,-0.49194,-0.47323,-0.45542,-0.43914,-0.42459,-0.41141000000000005,-0.39916,-0.38732000000000005,-0.37534,-0.36271,-0.34893,-0.33359000000000005,-0.31676000000000004,-0.29908,-0.28129000000000004,-0.26415,-0.24863,-0.23566,-0.22612,-0.22076,-0.21953000000000003,-0.22147,-0.22544,-0.23024,-0.23438000000000003,-0.23636,-0.2347,-0.22801,-0.21592,-0.19922,-0.17894,-0.15630000000000002,-0.13282000000000002,-0.11001,-0.08944,-0.0727,-0.06047,-0.05236,-0.04771,-0.04565,-0.04506,-0.04483,-0.0437,-0.04037,-0.03416,-0.025130000000000003,-0.01362,-0.00017,0.01452,0.02968,0.044410000000000005,0.057690000000000005,0.06872,0.07708000000000001,0.0826,0.08529,0.08531000000000001,0.08286,0.07836000000000001,0.07239000000000001,0.06580000000000001,0.059460000000000006,0.05412,0.05036,0.04868,0.0495,0.053070000000000006,0.05945,0.06817000000000001,0.07834,0.08912,0.09971,0.10937,0.11747,0.12345,0.12682,0.12765,0.12647,0.12388,0.12048,0.11685,0.11348,0.11084,0.10943,0.10943,0.11078,0.11337,0.11701,0.12156,0.12695,0.13307000000000002,0.13982,0.14708,0.15474,0.16268,0.17078,0.1789,0.18685,0.19442,0.20142,0.20772,0.21336,0.2184,0.22293,0.22711,0.23113,0.23522,0.23965,0.24461,0.25010000000000004,0.25607,0.26245,0.26907000000000003,0.27563000000000004,0.28173000000000004,0.28683,0.29043,0.29222000000000004,0.29202,0.28982,0.28569,0.27995000000000003,0.27329000000000003,0.26684,0.26223,0.26132,0.26564000000000004,0.27625,0.29426,0.32034,0.35440000000000005,0.39554000000000006,0.44069,0.48516,0.5245700000000001,0.5551200000000001,0.5728500000000001,0.5743900000000001,0.55723,0.51983,0.46461,0.39754000000000006,0.32467,0.25197,0.18558,0.13094,0.09318,0.07684,0.08242,0.10649,0.14501,0.19348,0.24725,0.30231,0.35438,0.39918,0.43463,0.46099,0.47912,0.49040000000000006,0.49626,0.4977,0.4960000000000001,0.49265,0.48861,0.48433,0.48001,0.47567,0.47138,0.46745,0.46422,0.46204000000000006,0.46123,0.46202,0.46453000000000005,0.46886000000000005,0.47491000000000005,0.48238,0.49079000000000006,0.49948,0.50775,0.51503,0.52093,0.5252300000000001,0.52797,0.52944,0.5301400000000001,0.53073,0.53195,0.53434,0.53825,0.5438500000000001,0.551,0.5593100000000001,0.5681900000000001,0.5769500000000001,0.58487,0.5914900000000001,0.59652,0.59985,0.6016100000000001,0.6021700000000001,0.60197,0.6015900000000001,0.6015400000000001,0.60209,0.6033700000000001,0.60536,0.6079100000000001,0.61072,0.6134200000000001,0.61558,0.6168600000000001,0.6170800000000001,0.61621,0.61428,0.61146,0.6079500000000001,0.6040500000000001,0.60011,0.5965100000000001,0.59355,0.5914400000000001,0.5902900000000001,0.5901500000000001,0.59104,0.5928300000000001,0.59531,0.59806,0.60053,0.60226,0.6029000000000001,0.60213,0.5997100000000001,0.59555,0.5897,0.58269,0.57537,0.5685300000000001,0.56288,0.55908,0.55771,0.5591900000000001,0.5637800000000001,0.5710900000000001,0.5801200000000001,0.58991,0.59955,0.6081000000000001,0.61472,0.6186400000000001,0.61921,0.6165200000000001,0.61138,0.60463,0.5971500000000001,0.58991,0.5838500000000001,0.5799000000000001,0.57898,0.58135,0.58648,0.5937600000000001,0.6024400000000001,0.61163,0.6203700000000001,0.6276200000000001,0.63229,0.6338100000000001,0.63231,0.62812,0.6217400000000001,0.61389,0.6054,0.5972400000000001,0.5904900000000001,0.5858500000000001,0.58352,0.5834600000000001,0.58545,0.58903,0.59365,0.5985900000000001,0.6030500000000001,0.60648,0.6087300000000001,0.60979,0.60979,0.60907,0.6080800000000001,0.6073700000000001,0.60755,0.6089500000000001,0.6114900000000001,0.6149800000000001,0.61914,0.62351,0.6275400000000001,0.6305700000000001,0.63185,0.6310300000000001,0.62834,0.6240300000000001,0.6184000000000001,0.6120500000000001,0.6058,0.6005100000000001,0.5971200000000001,0.59569,0.59509,0.59509,0.59635,0.5992900000000001,0.60468,0.61107,0.61465,0.61338,0.6071300000000001,0.59709,0.5863900000000001,0.57809,0.5743900000000001,0.5792200000000001,0.5979500000000001,0.6331800000000001,0.6849900000000001,0.7504400000000001,0.82261,0.89445,0.95912,1.0089,1.03724,1.04067,1.01938,0.9764,0.91657,0.84469,0.76475,0.6839500000000001,0.6119800000000001,0.5573,0.52798,0.52505,0.5428900000000001,0.5758000000000001,0.61462,0.65278,0.6875100000000001,0.71513,0.73614,0.75211,0.76462,0.7759100000000002,0.78594,0.79507,0.80295,0.80992,0.8176000000000002,0.82474,0.83025,0.83283,0.83057,0.8245500000000001,0.81617,0.80642,0.79675,0.78755,0.77906,0.77204,0.76702,0.76428,0.7639,0.7653200000000001,0.7676400000000002,0.77006,0.77188,0.77244,0.77133,0.76828,0.76319,0.75646,0.7488800000000002,0.7411700000000001,0.73402,0.72805,0.7237800000000002,0.72161,0.72189,0.72454,0.7290000000000002,0.73471,0.7410500000000002,0.7474,0.75318,0.75775,0.76045,0.7609,0.7590500000000001,0.75497,0.74886,0.74098,0.7316100000000002,0.72117,0.7101900000000001,0.6992100000000001,0.6887700000000001,0.67927,0.67105,0.6643500000000001,0.65932,0.6560400000000001,0.6545200000000001,0.6545500000000001,0.6557700000000001,0.65783,0.66039,0.66317,0.66598,0.66861,0.67086,0.6725300000000001,0.6735300000000001,0.67376,0.6732300000000001,0.6718500000000001,0.6695500000000001,0.6663,0.6621400000000001,0.6573800000000001,0.65253,0.64809,0.6445000000000001,0.64222,0.64165,0.64312,0.6468700000000001,0.6527400000000001,0.66015,0.66851,0.6772,0.68566,0.6934300000000001,0.7001400000000001,0.70547,0.7094400000000001,0.7123700000000001,0.7146600000000001,0.7167,0.71879,0.72106,0.7235800000000001,0.7263400000000002,0.72914,0.73171,0.73377,0.7351,0.73558,0.73528,0.73438,0.73318,0.7320700000000001,0.7315,0.7317800000000002,0.73316,0.73575,0.73953,0.74436,0.74997,0.75589,0.76158,0.7666400000000002,0.77073,0.7736400000000001,0.77522,0.7754200000000001,0.77427,0.77209,0.76936,0.7664900000000001,0.7638100000000002,0.76163,0.76017,0.75968,0.76035,0.76211,0.7646900000000002,0.76783,0.7712500000000002,0.77472,0.77802,0.78085,0.78289,0.7839,0.78377,0.7824200000000001,0.77977,0.77578,0.77046,0.76392,0.7563700000000002,0.74812,0.73942,0.73053,0.72164,0.71291,0.7042900000000001,0.6955800000000001,0.6863300000000001,0.6759700000000001,0.66398,0.64998,0.6338,0.6153500000000001,0.5948500000000001,0.5730000000000001,0.5509400000000001,0.53052,0.51388,0.50273,0.4983,0.50175,0.51376,0.5342300000000001,0.5621400000000001,0.59426,0.6257100000000001,0.65203,0.66934,0.6737200000000001,0.6618900000000001,0.6314200000000001,0.5809000000000001,0.51283,0.43308,0.34755,0.2619,0.18198,0.11297,0.05963,0.026050000000000004,0.01215,0.01377,0.026310000000000004,0.04493,0.06447,0.08036,0.0879,0.08256,0.06298000000000001,0.03118,-0.01011,-0.05765000000000001,-0.10783,-0.15732,-0.20242,-0.23921,-0.26545,-0.28095000000000003,-0.28621,-0.28239,-0.271,-0.25357,-0.23212,-0.20903,-0.18636,-0.16553,-0.14746,-0.13265,-0.12125,-0.11322,-0.10821,-0.10558,-0.10441,-0.10374,-0.10286,-0.10121,-0.09853,-0.09478,-0.09006,-0.08458,-0.07877,-0.07308,-0.06787,-0.06344000000000001,-0.059890000000000006,-0.05719,-0.055200000000000006,-0.053750000000000006,-0.05261,-0.05168,-0.05089,-0.05023,-0.04975,-0.04959,-0.049940000000000005,-0.05104,-0.05314000000000001,-0.05635,-0.0607,-0.06622,-0.07285000000000001,-0.08048000000000001,-0.08895,-0.09804,-0.10753,-0.11725,-0.12712,-0.13708,-0.14715,-0.15743,-0.16803,-0.17912,-0.19078,-0.20296,-0.21555,-0.22837,-0.24114,-0.25348000000000004,-0.26501,-0.27535000000000004,-0.28429000000000004,-0.29189000000000004,-0.29828000000000005,-0.30367000000000005,-0.3084,-0.31287000000000004,-0.3175,-0.32265000000000005,-0.32841000000000004,-0.33453000000000005,-0.34069000000000005,-0.34654,-0.35158,-0.35535000000000005,-0.35740000000000005,-0.35736,-0.35524000000000006,-0.35149,-0.34662000000000004,-0.34122,-0.33594,-0.33136000000000004,-0.32808000000000004,-0.32661,-0.32716,-0.32959000000000005,-0.33369000000000004,-0.33916,-0.34569000000000005,-0.35303,-0.36090000000000005,-0.36906000000000005,-0.37738,-0.38587,-0.39453,-0.40338,-0.41246,-0.4218,-0.43140000000000006,-0.44123,-0.45107,-0.46064,-0.46964000000000006,-0.47786000000000006,-0.48499,-0.49066,-0.49457000000000007,-0.49644,-0.49640000000000006,-0.49496000000000007,-0.49267000000000005,-0.4900600000000001,-0.48782,-0.48678,-0.48780000000000007,-0.49177,-0.49909,-0.50948,-0.52251,-0.5376200000000001,-0.55401,-0.5707000000000001,-0.5865100000000001,-0.6001000000000001,-0.61051,-0.61743,-0.6208400000000001,-0.6209600000000001,-0.6183500000000001,-0.6138100000000001,-0.6084200000000001,-0.6034900000000001,-0.60021,-0.5992700000000001,-0.6011000000000001,-0.6058100000000001,-0.6131300000000001,-0.62243,-0.6328900000000001,-0.64344,-0.6531800000000001,-0.66173,-0.66898,-0.67498,-0.68037,-0.68622,-0.6937500000000001,-0.7043400000000001,-0.71879,-0.73681,-0.75778,-0.78082,-0.80432,-0.8261600000000001,-0.84386,-0.85466,-0.85669,-0.8497300000000002,-0.8342400000000002,-0.81134,-0.78292,-0.75151,-0.7204400000000001,-0.6937800000000001,-0.67559,-0.66888,-0.67569,-0.6970000000000001,-0.7331,-0.78349,-0.8465600000000002,-0.91959,-0.99792,-1.07597,-1.14884,-1.21254,-1.26356,-1.29927,-1.31778,-1.31811,-1.30227,-1.27468,-1.23969,-1.20144,-1.16378,-1.12985,-1.10268,-1.08509,-1.07776,-1.07931,-1.08808,-1.10218,-1.11984,-1.13969,-1.16014,-1.17944,-1.19656,-1.21127,-1.22361,-1.23389,-1.24241,-1.24929,-1.25479,-1.25934,-1.2634,-1.26746,-1.27184,-1.27675,-1.28247,-1.28934,-1.29768,-1.3078200000000002,-1.31973,-1.33308,-1.34746,-1.36245,-1.37746,-1.39179,-1.40464,-1.41517,-1.42283,-1.42756,-1.4295000000000002,-1.42894,-1.4264,-1.42254,-1.41822,-1.41439,-1.4119,-1.4112300000000002,-1.41268,-1.41633,-1.42205,-1.42959,-1.43853,-1.44832,-1.45845,-1.46853,-1.47836,-1.48784,-1.49704,-1.5061700000000002,-1.51546,-1.52521,-1.53566,-1.54692,-1.559,-1.57183,-1.58522,-1.59895,-1.61279,-1.62652,-1.63999,-1.6531300000000002,-1.6659100000000002,-1.67832,-1.69037,-1.70196,-1.713,-1.72328,-1.73256,-1.74064,-1.74737,-1.7527100000000002,-1.75675,-1.7597600000000002,-1.76215,-1.76453,-1.76763,-1.77214,-1.77855,-1.7872,-1.79814,-1.81116,-1.82579,-1.84132,-1.85672,-1.87095,-1.88315,-1.89274,-1.89942,-1.90329,-1.9047,-1.90432,-1.90319,-1.9025,-1.90319,-1.90598,-1.91129,-1.91911,-1.92916,-1.94088,-1.95322,-1.965,-1.97522,-1.98313,-1.98823,-1.9904,-1.98982,-1.98694,-1.98278,-1.97863,-1.97557,-1.9745,-1.97611,-1.98073,-1.98844,-1.99906,-2.0117,-2.0251300000000003,-2.03823,-2.0500800000000003,-2.05988,-2.06719,-2.07178,-2.0736700000000003,-2.07356,-2.07257,-2.0717000000000003,-2.0718,-2.07355,-2.07731,-2.0832,-2.0910900000000003,-2.10013,-2.1089900000000004,-2.1165100000000003,-2.12168,-2.12365,-2.12199,-2.1165,-2.1073,-2.09534,-2.08217,-2.06924,-2.05785,-2.04907,-2.04354,-2.04162,-2.0434,-2.04816,-2.05467,-2.06175,-2.0683200000000004,-2.07359,-2.07731,-2.07946,-2.0803200000000004,-2.0805800000000003,-2.08105,-2.08232,-2.08483,-2.0886500000000003,-2.09332,-2.09792,-2.1011,-2.1011,-2.09621,-2.0851900000000003,-2.0673000000000004,-2.04202,-2.00939,-1.97017,-1.92591,-1.8798,-1.83601,-1.79821,-1.7694,-1.7525800000000002,-1.75026,-1.76414,-1.7950100000000002,-1.8404,-1.89495,-1.95324,-2.01007,-2.06014,-2.09851,-2.121,-2.12418,-2.1069600000000004,-2.07156,-2.01993,-1.9538,-1.87919,-1.80392,-1.73727,-1.6897700000000002,-1.66362,-1.65457,-1.65725,-1.6645900000000002,-1.67641,-1.69746,-1.73073,-1.7786400000000002,-1.83707,-1.89707,-1.95153,-1.99402,-2.02237,-2.03919,-2.04766,-2.05257,-2.05709,-2.06115,-2.06374,-2.06197,-2.05907,-2.0648600000000004,-2.08848,-2.13892,-2.2140600000000004,-2.30007,-2.38426,-2.45482,-2.50552,-2.53769,-2.5515100000000004,-2.5464200000000003,-2.5234400000000003,-2.4839900000000004,-2.43075,-2.3674600000000003,-2.2976,-2.2240900000000003,-2.14968,-2.07675,-2.0058800000000003,-1.93602,-1.86585,-1.79388,-1.71888,-1.64031,-1.55774,-1.47096,-1.3809,-1.2894,-1.19832,-1.10947,-1.02443,-0.94424,-0.8697,-0.80127,-0.7382700000000002,-0.67922,-0.62263,-0.56716,-0.5116200000000001,-0.45517,-0.39721,-0.33735000000000004,-0.27627,-0.21543,-0.15630000000000002,-0.10023,-0.04837,-0.00152,0.03962,0.07454000000000002,0.10357,0.12772,0.14805,0.16565,0.18121,0.1952,0.20851,0.22186,0.23568,0.25007,0.26403000000000004,0.27658000000000005,0.28743,0.29663,0.30491,0.31329,0.32217,0.33191000000000004,0.34417000000000003,0.36046,0.38196,0.4092,0.44041,0.47364000000000006,0.50799,0.54386,0.5833900000000001,0.62902,0.6846000000000001,0.75467,0.8421,0.95105,1.0833,1.23939,1.42592,1.64736,1.90889,2.2150100000000004,2.5579500000000004,2.92905,3.31807,3.71258,4.10935,4.50582,4.89764,5.282100000000001,5.65359,6.00675,6.33999,6.65307,6.94594,7.21885,7.47152,7.70318,7.91344,8.102250000000002,8.26899,8.413390000000001,8.53645,8.63943,8.72517,8.79673,8.855830000000001,8.90394,8.940240000000001,8.964440000000002,8.977870000000001,8.98301,8.986930000000001,8.99699,9.01958,9.06005,9.11837,9.192260000000001,9.27856,9.373500000000002,9.47545,9.58466,9.70379,9.83612,9.9861,10.1586,10.34438,10.5284,10.71715,10.92454,11.12908,11.28544,11.40179,11.53376,11.6918,11.83356,11.86655,11.65987,11.21189,10.71003,10.31028,10.00386,9.75282,9.59875,9.54718,9.4659,9.2526,9.03567,9.03991,9.274420000000001,9.51087,9.60292,9.6664,9.8632,10.19456,10.60263,11.05652,11.46231,11.69944,11.76209,11.71145,11.57138,11.37285,11.16839,10.96552,10.74778,10.52058,10.2879,10.04096,9.77268,9.47711,9.1417,8.74815,8.282960000000001,7.73914,7.12279,6.469110000000001,5.8291,5.25116,4.7726500000000005,4.39822,4.102130000000001,3.85267,3.61941,3.38141,3.1329300000000004,2.8734,2.60232,2.32156,2.0333400000000004,1.73776,1.43785,1.14136,0.85738,0.59733,0.37001,0.17492,0.005560000000000001,-0.14726,-0.29233000000000003,-0.43424,-0.57443,-0.7145300000000001,-0.8581900000000001,-1.00921,-1.17091,-1.34333,-1.51939,-1.69037,-1.84813,-1.98819,-2.1161800000000004,-2.2418,-2.37396,-2.51793,-2.66978,-2.81815,-2.95101,-3.05953,-3.1404,-3.19917,-3.2449900000000005,-3.28485,-3.3239500000000004,-3.3620400000000004,-3.39571,-3.4232500000000003,-3.4436000000000004,-3.4572100000000003,-3.46567,-3.4695000000000005,-3.46876,-3.4635900000000004,-3.45392,-3.4402100000000004,-3.42295,-3.4019600000000003,-3.37728,-3.34864,-3.31591,-3.28067,-3.2442200000000003,-3.2080900000000003,-3.1737400000000004,-3.14033,-3.10711,-3.07359,-3.03914,-3.00496,-2.9724600000000003,-2.94282,-2.91761,-2.8980300000000003,-2.8853000000000004,-2.8806800000000004,-2.88497,-2.8989300000000005,-2.9228500000000004,-2.95639,-2.9985700000000004,-3.04701,-3.09839,-3.14963,-3.1980600000000003,-3.24128,-3.27755,-3.30574,-3.3254400000000004,-3.3383900000000004,-3.3479400000000004,-3.3573100000000005,-3.36939,-3.3866600000000004,-3.41062,-3.44234,-3.48235,-3.5292900000000005,-3.5805300000000004,-3.63349,-3.68577,-3.73567,-3.78244,-3.8257,-3.86547,-3.902670000000001,-3.938530000000001,-3.97404,-4.00985,-4.045920000000001,-4.08135,-4.11483,-4.144640000000001,-4.16873,-4.185350000000001,-4.19324,-4.19171,-4.18072,-4.16089,-4.13335,-4.09966,-4.06198,-4.022410000000001,-3.9827,-3.94426,-3.90795,-3.87424,-3.843420000000001,-3.81559,-3.7906,-3.76833,-3.74882,-3.73224,-3.71904,-3.70986,-3.70519,-3.70542,-3.710490000000001,-3.71984,-3.73275,-3.74843,-3.76592,-3.78435,-3.80287,-3.82077,-3.83779,-3.85417,-3.87015,-3.88602,-3.90201,-3.918190000000001,-3.93463,-3.95126,-3.96762,-3.98303,-3.99685,-4.00847,-4.0172300000000005,-4.02256,-4.02397,-4.0212,-4.01473,-4.00511,-3.992150000000001,-3.975680000000001,-3.955540000000001,-3.93205,-3.90699,-3.8812,-3.85378,-3.82379,-3.78969,-3.75092,-3.70748,-3.65541,-3.5885400000000005,-3.5012100000000004,-3.3901900000000005,-3.25944,-3.1170000000000004,-2.97034,-2.8271400000000004,-2.6938000000000004,-2.57601,-2.4792500000000004,-2.40567,-2.35454,-2.32303,-2.3088900000000003,-2.3102,-2.31903,-2.3244200000000004,-2.31415,-2.27682,-2.21371,-2.1341,-2.04731,-1.96375,-1.88721,-1.81614,-1.75141,-1.6941,-1.64583,-1.6092,-1.58503,-1.57257,-1.57013,-1.57595,-1.58769,-1.60279,-1.62024,-1.63911,-1.6589300000000002,-1.67998,-1.70172,-1.72376,-1.74629,-1.76964,-1.79446,-1.82114,-1.84961,-1.87939,-1.90975,-1.93984,-1.9687,-1.99529,-2.01877,-2.03853,-2.05426,-2.06591,-2.0736000000000003,-2.07761,-2.0784100000000003,-2.07667,-2.07304,-2.06802,-2.06186,-2.05479,-2.04709,-2.03898,-2.0306200000000003,-2.02163,-2.01109,-1.99805,-1.98166,-1.96085,-1.93431,-1.90055,-1.85791,-1.80546,-1.74338,-1.67233,-1.59336,-1.50795,-1.4180100000000002,-1.32608,-1.23528,-1.14889,-1.06961,-0.99946,-0.93971,-0.89119,-0.85415,-0.82811,-0.81183,-0.8026700000000001,-0.79725,-0.7926,-0.78619,-0.77594,-0.76035,-0.7382200000000002,-0.7086800000000001,-0.6722300000000001,-0.63026,-0.5841900000000001,-0.53534,-0.4846200000000001,-0.43246,-0.37943,-0.32619000000000004,-0.27335000000000004,-0.22166,-0.17190000000000003,-0.12478,-0.08146,-0.04335000000000001,-0.01168,0.01246,0.02897,0.038790000000000005,0.04305,0.04304,0.04041,0.036890000000000006,0.03422,0.03409,0.0371,0.0427,0.05009,0.0583,0.06611,0.07237,0.07587,0.07547000000000001,0.07099000000000001,0.06326000000000001,0.05335,0.04257,0.03218,0.02344,0.01824,0.016640000000000002,0.01814,0.02566,0.043890000000000005,0.07631,0.05827,0.12493,0.16292,0.17522,0.24279000000000003,0.28209,0.33595,0.38983,0.44361000000000006,0.49601000000000006,0.5458900000000001,0.59184,0.63258,0.6683,0.69937,0.7262900000000002,0.74986,0.77102,0.79081,0.8104000000000001,0.83044,0.8508000000000001,0.87113,0.89087,0.90924,0.92542,0.93851,0.94755,0.95196,0.95171,0.94704,0.93837,0.92629,0.9114000000000002,0.89438,0.8759800000000002,0.85686,0.8374800000000001,0.81819,0.79921,0.78077,0.76313,0.74662,0.73153,0.71818,0.70686,0.6978200000000001,0.69128,0.68735,0.6859500000000001,0.6867800000000001,0.68932,0.6929000000000001,0.69691,0.7008700000000001,0.7044600000000001,0.70752,0.7103,0.71343,0.7179500000000001,0.72549,0.73774,0.75601,0.78111,0.81368,0.8538000000000001,0.9008,0.95322,1.00779,1.06002,1.1059,1.14206,1.16526,1.17293,1.16333,1.13566,1.09252,1.03942,0.98182,0.92489,0.87379,0.8329700000000002,0.80653,0.79804,0.80758,0.83188,0.8672,0.90953,0.95481,0.99957,1.04011,1.07272,1.09562,1.10916,1.11421,1.11208,1.10422,1.09179,1.07621,1.05912,1.04153,1.0237,1.00561,0.98698,0.96739,0.94646,0.92378,0.89899,0.8721500000000002,0.8438500000000002,0.8148200000000002,0.7859100000000001,0.7581500000000002,0.7325100000000001,0.70991,0.69115,0.6763800000000001,0.6650900000000001,0.6567000000000001,0.6505500000000001,0.64585,0.6419400000000001,0.6382300000000001,0.63426,0.63029,0.6271800000000001,0.6258,0.62699,0.6316200000000001,0.6404000000000001,0.6538700000000001,0.67232,0.6951,0.72066,0.74743,0.7739,0.79849,0.81974,0.8363800000000001,0.8472900000000002,0.8525600000000002,0.85342,0.85126,0.84752,0.84382,0.84169,0.8427300000000002,0.8485100000000002,0.8595800000000001,0.8754600000000001,0.89539,0.91844,0.94343,0.9691,0.99402,1.01661,1.036,1.05217,1.0654,1.07627,1.08573,1.09492,1.10526,1.11837,1.13546,1.15704,1.1833,1.21406,1.24869,1.2862300000000002,1.32545,1.36491,1.40338,1.44026,1.47523,1.50831,1.54001,1.57123,1.6031,1.63691,1.67359,1.71339,1.7562400000000002,1.80181,1.84924,1.89729,1.9445,1.98922,2.03034,2.06755,2.10093,2.13094,2.15839,2.1843700000000004,2.21031,2.2379,2.26878,2.30416,2.34486,2.39117,2.44327,2.5010700000000003,2.56413,2.6316300000000004,2.70177,2.7720100000000003,2.8398800000000004,2.90303,2.9591900000000004,3.00632,3.0424300000000004,3.06564,3.0750300000000004,3.0706200000000003,3.05276,3.02213,2.9793800000000004,2.92507,2.85998,2.78513,2.70184,2.61162,2.51602,2.41652,2.31462,2.2118900000000004,2.10997,2.01062,1.91542,1.82567,1.7424400000000002,1.66657,1.59891,1.54027,1.49118,1.45183,1.42158,1.3990300000000002,1.38278,1.3714,1.3633400000000002,1.35701,1.35076,1.34287,1.33229,1.31872,1.30201,1.28216,1.25938,1.23407,1.20692,1.17883,1.15048,1.12194,1.0931,1.06369,1.03296,0.99968,0.96231,0.91895,0.8681200000000001,0.80934,0.74259,0.6682800000000001,0.58762,0.50255,0.41567,0.33030000000000004,0.24979,0.17652,0.11194,0.056810000000000006,0.01045,-0.02866,-0.061770000000000005,-0.09155,-0.12114,-0.15379,-0.19516,-0.24956000000000003,-0.32042000000000004,-0.41028,-0.5171800000000001,-0.63763,-0.7665,-0.8963000000000002,-1.01997,-1.13176,-1.22506,-1.2947,-1.34004,-1.3613,-1.3626,-1.35126,-1.33089,-1.30483,-1.27671,-1.24869,-1.2241700000000002,-1.20618,-1.19455,-1.18724,-1.18202,-1.17668,-1.16968,-1.16036,-1.14812,-1.13249,-1.114,-1.09384,-1.07303,-1.05253,-1.03284,-1.01388,-0.99544,-0.97719,-0.95848,-0.93873,-0.91748,-0.89443,-0.86959,-0.8432400000000002,-0.8157200000000001,-0.7874200000000001,-0.7586100000000001,-0.72933,-0.6995100000000001,-0.6690400000000001,-0.6376200000000001,-0.60492,-0.57069,-0.53478,-0.49752,-0.45974,-0.42233,-0.38613,-0.35203,-0.32073,-0.29278000000000004,-0.26856,-0.24776,-0.22951,-0.21291,-0.19707,-0.18123,-0.16489,-0.14777,-0.12971,-0.11115,-0.09292,-0.07582000000000001,-0.06054,-0.047630000000000006,-0.03728,-0.02949,-0.02406,-0.02031,-0.01726,-0.01402,-0.0098,-0.0040100000000000005,0.00369,0.01351,0.02549,0.03925,0.05415,0.06959,0.08501,0.09998,0.11419,0.12734,0.13909,0.14922,0.15753,0.16387,0.16817,0.17025,0.16995,0.16725,0.1623,0.15564,0.14813,0.14062000000000002,0.13383,0.12854,0.12538,0.12488,0.12739,0.13261,0.13965000000000002,0.14758,0.15547000000000002,0.16242,0.16766,0.17044,0.17,0.16604000000000002,0.15867,0.14813,0.13471000000000002,0.11873,0.10045,0.08023000000000001,0.058530000000000006,0.035820000000000005,0.01256,-0.01087,-0.034190000000000005,-0.05716,-0.0796,-0.10143,-0.12263,-0.14335,-0.16378,-0.18405,-0.20424,-0.22425,-0.24387000000000003,-0.26285,-0.28089,-0.29764,-0.31284,-0.32629,-0.33795,-0.34790000000000004,-0.35635000000000006,-0.36358,-0.36987,-0.37557,-0.3809900000000001,-0.38641,-0.39202,-0.39793,-0.40421,-0.41092,-0.4181800000000001,-0.4261,-0.43468,-0.44389000000000006,-0.45363,-0.46379,-0.47423,-0.48466,-0.49467000000000005,-0.5036400000000001,-0.5108900000000001,-0.5158600000000001,-0.51812,-0.51737,-0.51341,-0.50624,-0.49598,-0.48321,-0.46871,-0.45324,-0.43742,-0.42174000000000006,-0.40644,-0.39169,-0.37754,-0.36369,-0.34963000000000005,-0.33488,-0.31903000000000004,-0.30183000000000004,-0.2833,-0.2636,-0.24301000000000003,-0.22208,-0.20143,-0.1816,-0.16299000000000002,-0.14594,-0.13057
0.02312,0.020100000000000003,-0.004370000000000001,0.00955,0.025130000000000003,0.031790000000000006,0.03715,0.04234,0.047630000000000006,0.05326,0.059370000000000006,0.06626,0.07398,0.08215,0.09032,0.09786,0.10398,0.10808,0.1096,0.10796,0.10286,0.09434,0.08312000000000001,0.07053000000000001,0.05789,0.046360000000000005,0.03713,0.031330000000000004,0.029960000000000004,0.03379,0.04248,0.05465,0.06879,0.08346,0.09707,0.10808,0.11499,0.11635,0.11186,0.10243,0.08922,0.07351,0.05676,0.04037,0.02584,0.01466,0.00752,0.00408,0.00375,0.00578,0.00922,0.01321,0.016800000000000002,0.01906,0.01966,0.01902,0.01771,0.016360000000000003,0.0158,0.01678,0.01997,0.025980000000000003,0.034600000000000006,0.04488,0.0558,0.06631000000000001,0.07518000000000001,0.08129,0.0836,0.08125,0.07432000000000001,0.06385,0.05097,0.03685,0.022820000000000003,0.01012,2e-05,-0.00627,-0.008400000000000001,-0.00683,-0.0022,0.00472,0.01311,0.02204,0.030560000000000004,0.037590000000000005,0.04236,0.04476,0.04451,0.0418,0.03649,0.02823,0.02222,0.02399,0.03029,0.03817,0.04537,0.04765,0.05355000000000001,0.07188,0.09081,0.09849,0.09652,0.08618,0.06568,0.03486,-0.00572,-0.05483,-0.11031,-0.16907000000000003,-0.22656,-0.27798,-0.31938000000000005,-0.34778000000000003,-0.36103,-0.35794000000000004,-0.33821,-0.30252,-0.25412,-0.19801,-0.13888,-0.08086,-0.02754,0.01832,0.05432000000000001,0.07849,0.0911,0.09434,0.09051,0.08198000000000001,0.07075000000000001,0.058280000000000005,0.046110000000000005,0.035840000000000004,0.02816,0.02292,0.01975,0.01814,0.0177,0.01833,0.01983,0.02195,0.024520000000000004,0.02748,0.030820000000000004,0.03458,0.038770000000000006,0.043280000000000006,0.04794,0.05247,0.05652000000000001,0.05974,0.06183,0.0626,0.06188,0.059640000000000006,0.056,0.05129,0.04617,0.04154,0.03815,0.036640000000000006,0.03752,0.0411,0.0475,0.05663000000000001,0.06777000000000001,0.07983000000000001,0.09178,0.1027,0.11181,0.11865,0.1229,0.12443,0.12371,0.12155,0.11872,0.11589,0.11354,0.11184,0.1108,0.11022,0.10945,0.10761,0.10396,0.0979,0.08901,0.07714,0.06238,0.045090000000000005,0.026220000000000004,0.00708,-0.01112,-0.027340000000000003,-0.0406,-0.05011,-0.05528,-0.05577000000000001,-0.052140000000000006,-0.045660000000000006,-0.03761,-0.02919,-0.02169,-0.016370000000000003,-0.01438,-0.016720000000000002,-0.02336,-0.03327,-0.04533,-0.058370000000000005,-0.07100000000000001,-0.08180000000000001,-0.08932000000000001,-0.09218,-0.09012,-0.08405000000000001,-0.07504000000000001,-0.06429,-0.05328,-0.04359,-0.0369,-0.0349,-0.038160000000000006,-0.04598000000000001,-0.05738000000000001,-0.07118000000000001,-0.08592000000000001,-0.10001,-0.11166,-0.11895,-0.12085,-0.11752,-0.10949,-0.09758,-0.08289,-0.06661,-0.05025,-0.03556,-0.02394,-0.0161,-0.01235,-0.01266,-0.01682,-0.02462,-0.035570000000000004,-0.04895000000000001,-0.06375,-0.07889,-0.09352,-0.10697,-0.11858,-0.12755,-0.13309,-0.13448,-0.13162,-0.12498,-0.11507,-0.10254,-0.08842000000000001,-0.07389000000000001,-0.0604,-0.04923,-0.04061,-0.03526,-0.034800000000000005,-0.040990000000000006,-0.05620000000000001,-0.07940000000000001,-0.10547,-0.12894,-0.14382,-0.14828000000000002,-0.14568,-0.13943,-0.13266,-0.12604,-0.1178,-0.10663,-0.09266,-0.07827,-0.06562000000000001,-0.05704000000000001,-0.055040000000000006,-0.05852,-0.06582,-0.07353000000000001,-0.0752,-0.06972,-0.06099,-0.0568,-0.06661,-0.09123,-0.12082,-0.13935,-0.13284,-0.09776,-0.043,0.01509,0.060910000000000006,0.08263000000000002,0.07583,0.04204,-0.01496,-0.0873,-0.1683,-0.25422,-0.33981,-0.41911,-0.48447000000000007,-0.5256000000000001,-0.53651,-0.51815,-0.47466,-0.41208000000000006,-0.33606,-0.25155,-0.16593000000000002,-0.08974000000000001,-0.03271,0.0013,0.01561,0.01938,0.02216,0.028860000000000004,0.03922,0.0497,0.05752,0.06197,0.06393,0.06502000000000001,0.06586,0.06642,0.06675,0.06692000000000001,0.06717000000000001,0.06783,0.06914000000000001,0.07134,0.07484,0.07991,0.08654,0.09444,0.10302,0.11151,0.11927,0.12577000000000002,0.13046000000000002,0.133,0.13323,0.13128,0.12779,0.12376,0.12006,0.11745,0.11661,0.11802,0.12208,0.12907,0.13879000000000002,0.15065,0.16409,0.17852,0.19353,0.20885,0.22417,0.23913,0.2534,0.26658000000000004,0.27832,0.28829000000000005,0.29593,0.30056000000000005,0.30157,0.29842,0.29104,0.27997,0.26585000000000003,0.24943,0.23172,0.2139,0.19725,0.18315,0.17246,0.16537,0.16183,0.16155000000000003,0.16396000000000002,0.16827,0.17341,0.17807,0.18112,0.18179,0.17963,0.17441,0.16623,0.15541000000000002,0.14263,0.1288,0.11511,0.10268,0.09239,0.08488000000000001,0.08055000000000001,0.07952,0.08166000000000001,0.08655,0.09324,0.10057,0.10761,0.11331,0.11602,0.11785,0.12029,0.11857,0.10407,0.07913,0.14613,0.06345,0.08741,0.08525,0.08720000000000001,0.15327,-0.01295,0.15151,0.1123,0.0927,0.09599,0.10103,0.0967,0.08710000000000001,0.07845,0.06957,0.06089000000000001,0.053430000000000005,0.04766,0.04368,0.04141,0.04062,0.04071,0.04091,0.04058,0.039180000000000006,0.036550000000000006,0.03296,0.02881,0.02467,0.02116,0.01877,0.017820000000000003,0.01845,0.02042,0.0231,0.025640000000000003,0.027000000000000003,0.026230000000000003,0.0227,0.016030000000000003,0.006070000000000001,-0.00695,-0.02252,-0.0398,-0.05777,-0.07524,-0.0911,-0.10445,-0.11467,-0.1213,-0.12408,-0.12302,-0.11826,-0.11042,-0.10065,-0.09012,-0.07979,-0.07073,-0.06415,-0.06124,-0.06317,-0.07026,-0.08134000000000001,-0.09437000000000001,-0.10825,-0.12255,-0.13645,-0.14963,-0.15979,-0.16293,-0.1582,-0.14663,-0.12949000000000002,-0.10997,-0.09115,-0.07378000000000001,-0.06322,-0.06931000000000001,-0.0979,-0.15388,-0.23687,-0.33673,-0.44377000000000005,-0.5511400000000001,-0.6494200000000001,-0.72845,-0.78048,-0.7958,-0.77156,-0.7180000000000001,-0.6454200000000001,-0.5648000000000001,-0.48635000000000006,-0.4124,-0.34552000000000005,-0.28911000000000003,-0.24401000000000003,-0.21173,-0.19298,-0.18839,-0.19681,-0.21154,-0.22503,-0.22802,-0.2164,-0.19751,-0.17909000000000003,-0.16907000000000003,-0.17164,-0.18131,-0.19349,-0.20542,-0.21511,-0.22389,-0.23203,-0.23808,-0.24101,-0.24025,-0.23612,-0.22946,-0.22112,-0.21213,-0.20383,-0.19772,-0.1952,-0.19664,-0.20132,-0.20825,-0.21631000000000003,-0.22408,-0.23002000000000003,-0.23245,-0.22971,-0.22117,-0.20736,-0.18912,-0.16752,-0.14391,-0.11973,-0.09656,-0.07600000000000001,-0.05886,-0.04493,-0.033740000000000006,-0.02465,-0.01665,-0.00871,0.00028,0.01135,0.02473,0.039610000000000006,0.05500000000000001,0.06984,0.08267,0.09204,0.09652,0.09481,0.08683,0.07383,0.0573,0.03892,0.02072,0.004730000000000001,-0.006960000000000001,-0.01232,-0.01057,-0.00234,0.01137,0.02927,0.04977,0.07123,0.09188,0.10978,0.12382,0.1338,0.13990000000000002,0.14258,0.14255,0.14056,0.13762000000000002,0.13489,0.13337,0.1337,0.13622,0.14107,0.14819,0.15742,0.16836,0.18036,0.19241,0.20334,0.21216,0.21809,0.22042,0.21865,0.21251,0.20203,0.18807,0.17215000000000003,0.15571,0.14008,0.12656,0.1162,0.1099,0.10832,0.11113,0.11715,0.12517,0.13396000000000002,0.14237000000000002,0.14945,0.15430000000000002,0.15615,0.15498,0.15144,0.14623,0.14008,0.13368000000000002,0.12748,0.12196,0.11755,0.1143,0.11196,0.11025,0.10885,0.1076,0.1065,0.10553,0.10473,0.10409,0.1035,0.10284,0.10198,0.10058,0.09813,0.09413,0.08802,0.07961,0.06925,0.05741,0.04463,0.03171,0.01958,0.009300000000000001,0.00199,-0.0016600000000000002,-0.0016500000000000002,0.00175,0.00809,0.01666,0.02655,0.03661,0.045410000000000006,0.05167000000000001,0.05457000000000001,0.0536,0.04852,0.03939,0.02659,0.01096,-0.006180000000000001,-0.02305,-0.037910000000000006,-0.04938000000000001,-0.05653,-0.05867000000000001,-0.05564,-0.04801,-0.03708,-0.025640000000000003,-0.017320000000000002,-0.01525,-0.02192,-0.03966,-0.07008,-0.11392,-0.17090000000000002,-0.23771000000000003,-0.30863,-0.37814,-0.44119,-0.4927800000000001,-0.52868,-0.54522,-0.53947,-0.51222,-0.46761,-0.41014000000000006,-0.34455,-0.27555,-0.20724,-0.14387000000000003,-0.08960000000000001,-0.04644,-0.01413,0.00811,0.0216,0.02763,0.02712,0.02139,0.01202,0.00036,-0.01256,-0.02593,-0.03921,-0.05178000000000001,-0.06289,-0.07187,-0.07809,-0.08133000000000001,-0.08178,-0.07971,-0.07541,-0.0693,-0.06188,-0.05378,-0.04571,-0.03822,-0.031450000000000006,-0.025470000000000003,-0.02017,-0.01528,-0.0104,-0.005030000000000001,0.00136,0.00909,0.01807,0.028100000000000003,0.03882,0.04966,0.0599,0.06882,0.07567,0.08019000000000001,0.08268,0.08357,0.0834,0.08296,0.08308,0.08461,0.08835000000000001,0.09447,0.10239,0.1114,0.12066,0.12917,0.13592,0.13989,0.14011,0.13628,0.12887,0.11856,0.10617,0.09266,0.07894000000000001,0.06597,0.05478,0.04603,0.03992,0.03644,0.035390000000000005,0.03656,0.03974,0.044640000000000006,0.0508,0.05757,0.06419000000000001,0.07003000000000001,0.07458,0.07731,0.07773,0.07545,0.07028000000000001,0.06268,0.05371000000000001,0.0444,0.03572,0.02868,0.02414,0.02285,0.02533,0.03122,0.0393,0.04832,0.05705,0.06424,0.06887,0.07008,0.06718,0.06053000000000001,0.051370000000000006,0.04101,0.030720000000000004,0.02179,0.01526,0.01202,0.01275,0.01712,0.02392,0.031880000000000006,0.03976,0.0463,0.0505,0.051460000000000006,0.048470000000000006,0.04177,0.03243,0.02161,0.01047,0.00015,-0.00841,-0.01435,-0.01693,-0.01616,-0.0128,-0.007640000000000002,-0.00154,0.0046700000000000005,0.01039,0.01501,0.01797,0.01922,0.01913,0.01808,0.0165,0.01476,0.01307,0.01165,0.01068,0.0101,0.00965,0.00909,0.00822,0.00687,0.004900000000000001,0.00218,-0.00143,-0.005790000000000001,-0.01049,-0.01518,-0.01965,-0.02348,-0.026060000000000003,-0.02676,-0.02501,-0.02102,-0.01615,-0.01104,-0.00534,0.0008700000000000001,0.00787,0.0143,0.01673,0.01366,0.00468,-0.0101,-0.029110000000000004,-0.05066,-0.07150000000000001,-0.08562,-0.08575,-0.06765,-0.03105,0.02107,0.08331000000000002,0.15046,0.21484000000000003,0.26599,0.29273000000000005,0.28712000000000004,0.24943,0.18675,0.1085,0.021890000000000003,-0.06724000000000001,-0.15356,-0.22884,-0.28029000000000004,-0.29941,-0.2836,-0.23715,-0.17284000000000002,-0.1049,-0.044480000000000006,0.00128,0.03087,0.049,0.06171000000000001,0.07360000000000001,0.08797,0.10435,0.12105,0.13828,0.15651,0.1758,0.19513,0.21138,0.22101,0.2223,0.21558,0.20272,0.1863,0.16863,0.1513,0.13556,0.12284,0.11429,0.11066,0.11224,0.11812,0.12658,0.13607000000000002,0.14517000000000002,0.15262,0.15766000000000002,0.15977000000000002,0.15869000000000003,0.15506,0.15019,0.14527,0.14143,0.13959,0.14039,0.14432,0.15175000000000002,0.16237,0.1753,0.18961,0.2044,0.21885,0.2323,0.24403,0.25331000000000004,0.25974,0.26325000000000004,0.26392000000000004,0.26194,0.25747000000000003,0.25064,0.24174,0.2312,0.21962,0.20771,0.19607,0.18519,0.17557,0.16766,0.16184,0.15835,0.15701,0.15729,0.15865,0.16056,0.16249000000000002,0.16395,0.16443000000000002,0.16341,0.16069,0.15635,0.15056,0.14353,0.13552,0.12681,0.11777,0.10884,0.10042,0.0928,0.08620000000000001,0.08074,0.07647000000000001,0.07334,0.07121000000000001,0.06981000000000001,0.06877000000000001,0.06770000000000001,0.06626,0.06421,0.06138,0.05777,0.05347,0.04868,0.04376,0.03912,0.035100000000000006,0.03196,0.02985,0.0288,0.028690000000000004,0.02931,0.03024,0.031000000000000003,0.031150000000000004,0.03034,0.02831,0.02493,0.02018,0.01416,0.00722,-0.00017,-0.00756,-0.01455,-0.02082,-0.02617,-0.03046,-0.03366,-0.035980000000000005,-0.03778,-0.039380000000000005,-0.041080000000000005,-0.04311,-0.04564000000000001,-0.04877,-0.05254,-0.05676,-0.06105000000000001,-0.06507,-0.06853000000000001,-0.07112,-0.07258,-0.07264000000000001,-0.07107000000000001,-0.06789,-0.06340000000000001,-0.057940000000000005,-0.05186,-0.045590000000000006,-0.03964,-0.034640000000000004,-0.03125,-0.02991,-0.03068,-0.0335,-0.03824,-0.04461,-0.05206,-0.05975,-0.0666,-0.07160000000000001,-0.0742,-0.07398,-0.07064000000000001,-0.06398000000000001,-0.05396,-0.04171,-0.02939,-0.01975,-0.016040000000000002,-0.01949,-0.0289,-0.042010000000000006,-0.054700000000000006,-0.06478,-0.07443000000000001,-0.08746000000000001,-0.10823,-0.13840000000000002,-0.17204000000000003,-0.19826,-0.2079,-0.19486,-0.16102000000000002,-0.11619,-0.06925,-0.0302,-0.00769,-0.00741,-0.03552,-0.09248,-0.17322,-0.26922,-0.36909,-0.46422,-0.54874,-0.61512,-0.6560800000000001,-0.6676000000000001,-0.64856,-0.6052000000000001,-0.5482600000000001,-0.48417,-0.41825,-0.35662000000000005,-0.30508,-0.27196000000000004,-0.26322,-0.27654,-0.30534,-0.34212000000000004,-0.38132,-0.42079000000000005,-0.45834,-0.49072,-0.51382,-0.5246500000000001,-0.5234800000000001,-0.51182,-0.49162000000000006,-0.46526000000000006,-0.43495000000000006,-0.40331000000000006,-0.37334,-0.3471,-0.32522,-0.30773,-0.29422000000000004,-0.28395000000000004,-0.27602000000000004,-0.26915,-0.26181000000000004,-0.25274,-0.24135,-0.22743,-0.21109,-0.19273,-0.17298000000000002,-0.15263,-0.13267,-0.11397,-0.09704,-0.08214,-0.06931000000000001,-0.05842000000000001,-0.04923,-0.04139,-0.03447,-0.028010000000000004,-0.02168,-0.01525,-0.008620000000000001,-0.00168,0.005690000000000001,0.01358,0.0221,0.03122,0.040720000000000006,0.05036,0.05986,0.06887,0.07692,0.08345000000000001,0.08779,0.08932000000000001,0.08765,0.08259000000000001,0.07411000000000001,0.06235,0.04758,0.03029,0.01123,-0.008520000000000002,-0.02771,-0.04529,-0.060410000000000005,-0.07238,-0.0807,-0.0851,-0.08554,-0.08266000000000001,-0.07759,-0.07138,-0.06495000000000001,-0.05910000000000001,-0.05432000000000001,-0.05102,-0.049400000000000006,-0.049150000000000006,-0.04954,-0.04989,-0.04959,-0.048240000000000005,-0.045750000000000006,-0.04216,-0.03762,-0.032560000000000006,-0.027500000000000004,-0.0229,-0.0191,-0.016210000000000002,-0.01398,-0.01206,-0.009940000000000001,-0.0071,-0.0032700000000000003,0.00168,0.00774,0.0146,0.02165,0.02815,0.03316,0.035870000000000006,0.03586,0.032940000000000004,0.02718,0.01889,0.00858,-0.00304,-0.01502,-0.026320000000000003,-0.03599,-0.04331,-0.04784,-0.04925,-0.04728,-0.041850000000000005,-0.03304,-0.02152,-0.00839,0.00532,0.01868,0.03071,0.040380000000000006,0.04667,0.04857,0.04583,0.03907,0.02906,0.01668,0.00307,-0.01049,-0.02252,-0.03141,-0.03618,-0.03681,-0.03363,-0.02718,-0.01849,-0.00881,0.00032,0.0071400000000000005,0.01044,0.01003,0.0061,-0.0008300000000000001,-0.00965,-0.01887,-0.02676,-0.03139,-0.03148,-0.02696,-0.01821,-0.00597,0.00825,0.0225,0.03452,0.04191,0.04322,0.03864,0.02885,0.01495,-0.00101,-0.016380000000000002,-0.02817,-0.033120000000000004,-0.02941,-0.017470000000000003,0.00152,0.02573,0.05227,0.07759,0.09748,0.1072,0.10327,0.08446,0.05072,0.0031400000000000004,-0.05626,-0.12474,-0.19854,-0.27295,-0.34272,-0.40318,-0.45071000000000006,-0.48286000000000007,-0.4978300000000001,-0.49442,-0.47233,-0.43213,-0.37673,-0.31079,-0.23868000000000003,-0.1644,-0.09173,-0.02405,0.03527,0.08296,0.11773,0.14031,0.15183000000000002,0.15376,0.14771,0.13519,0.1183,0.09963,0.08147,0.06542,0.0526,0.04367,0.03905,0.038950000000000005,0.043190000000000006,0.05111,0.06151,0.07295,0.08427000000000001,0.09455000000000002,0.10308,0.10935,0.11294,0.11361,0.11166,0.10781,0.10272,0.09706,0.09147000000000001,0.08660000000000001,0.08316000000000001,0.08193,0.08334000000000001,0.08744,0.09415,0.10325,0.11432,0.12680000000000002,0.13995,0.15292,0.16498,0.17570000000000002,0.18481,0.19219,0.19801,0.20263,0.20651,0.21019,0.21398000000000003,0.21781000000000003,0.22147,0.22465,0.22673,0.22699,0.22471,0.21915,0.2101,0.19796,0.1833,0.16682000000000002,0.14946,0.13209,0.11565,0.10102,0.08861,0.07835,0.07007000000000001,0.06347,0.05822000000000001,0.05416000000000001,0.051190000000000006,0.04925,0.048560000000000006,0.04936,0.05182,0.056040000000000006,0.061930000000000006,0.06913000000000001,0.07706,0.08492000000000001,0.09164,0.09628,0.09813,0.09678,0.09208000000000001,0.08426,0.07382000000000001,0.06165,0.04907,0.037500000000000006,0.02808,0.02162,0.01862,0.01921,0.02326,0.030320000000000003,0.039290000000000005,0.048830000000000005,0.05778,0.06525,0.07058,0.07348,0.07383,0.07177,0.06804,0.06371,0.05969000000000001,0.05671,0.05532,0.0558,0.05825,0.06249,0.06774000000000001,0.0728,0.07663,0.07839,0.07734,0.07294,0.06494000000000001,0.05337000000000001,0.03919,0.02412,0.00973,-0.00254,-0.01134,-0.01555,-0.01425,-0.006840000000000001,0.006070000000000001,0.02281,0.04169,0.06105000000000001,0.07932,0.0952,0.10748,0.1151,0.11802,0.11711,0.11338,0.10789,0.10156,0.09502,0.08893000000000002,0.08388000000000001,0.08003,0.07721,0.07511000000000001,0.07344,0.07205,0.07110000000000001,0.07076,0.07126,0.07282000000000001,0.07549,0.07930000000000001,0.08425,0.09008,0.09624,0.10203,0.10656,0.10918,0.10965,0.10789,0.10402,0.09841,0.09183,0.08539,0.08056,0.0788,0.08108000000000001,0.08793,0.09944,0.11547,0.13543000000000002,0.15804,0.18124,0.20189,0.21635,0.22164000000000003,0.21557,0.19598,0.16123,0.11067,0.04474,-0.032780000000000004,-0.11532,-0.19658,-0.27083,-0.33211,-0.3750500000000001,-0.39487000000000005,-0.38762,-0.35395000000000004,-0.29894000000000004,-0.22819000000000003,-0.14762,-0.06346,0.01853,0.09235,0.15200000000000002,0.19473,0.22132,0.23342,0.23344,0.22413,0.20801,0.18821,0.16827,0.15076,0.13684,0.12703,0.12127,0.1192,0.12042,0.12418,0.12937,0.13478,0.13934,0.14232,0.14328,0.14202,0.13851000000000002,0.13292,0.1256,0.11729,0.10894,0.10142,0.09542,0.09147000000000001,0.08988,0.09084,0.09437000000000001,0.1,0.10698,0.11453,0.12198,0.12876,0.13455,0.13915000000000002,0.14252,0.14498000000000003,0.14709,0.14936000000000002,0.15223,0.15596,0.16058,0.16595,0.17176000000000002,0.17735,0.18188,0.18461,0.18496,0.1825,0.17706000000000002,0.16865000000000002,0.1575,0.1443,0.13002000000000002,0.11557,0.10175,0.0892,0.07837000000000001,0.06954,0.06291000000000001,0.0582,0.05485,0.052320000000000005,0.05012,0.04785,0.045320000000000006,0.04234,0.03881,0.03488,0.030830000000000003,0.02695,0.023510000000000003,0.02067,0.0185,0.01702,0.016200000000000003,0.01591,0.015940000000000003,0.016110000000000003,0.016280000000000003,0.016370000000000003,0.01639,0.0164,0.01649,0.01682,0.017470000000000003,0.01851,0.01996,0.02171,0.02355,0.02523,0.02646,0.02697,0.02662,0.025300000000000003,0.02304,0.01996,0.01635,0.01251,0.0088,0.00546,0.00257,0.00015,-0.00187,-0.00369,-0.00561,-0.007980000000000001,-0.01116,-0.01528,-0.02025,-0.0259,-0.031990000000000005,-0.03819,-0.04411,-0.0493,-0.05329,-0.05577000000000001,-0.056670000000000005,-0.056,-0.05388,-0.05043,-0.04581,-0.04027,-0.0342,-0.02812,-0.02262,-0.01817,-0.01519,-0.01413,-0.01541,-0.01931,-0.02596,-0.034910000000000004,-0.0452,-0.055880000000000006,-0.06607,-0.07481,-0.08121,-0.08452000000000001,-0.08416000000000001,-0.08044000000000001,-0.07445,-0.06737,-0.06031,-0.054450000000000005,-0.0509,-0.050780000000000006,-0.05482000000000001,-0.06271,-0.07334,-0.08549000000000001,-0.09865,-0.11263,-0.12548,-0.13455,-0.13626000000000002,-0.12705000000000002,-0.1093,-0.08811,-0.06916,-0.059530000000000007,-0.059550000000000006,-0.06531,-0.07384,-0.08043,-0.08451,-0.08949000000000001,-0.09664,-0.10661,-0.11915,-0.1315,-0.14137000000000002,-0.14950000000000002,-0.15494000000000002,-0.15731,-0.15937,-0.15612,-0.14114,-0.10863,-0.04884,0.03044,0.10658,0.15571,0.15252,0.09197,-0.0074,-0.12344,-0.23494,-0.32848000000000005,-0.40269,-0.45716,-0.48883,-0.49640000000000006,-0.48030000000000006,-0.44309,-0.38956,-0.32620000000000005,-0.25989,-0.19764,-0.14687,-0.1116,-0.09099,-0.08197,-0.08089,-0.08349,-0.08683,-0.08925000000000001,-0.08784,-0.08218,-0.07436000000000001,-0.06589,-0.05935000000000001,-0.05568000000000001,-0.05351,-0.05211,-0.05106,-0.05079,-0.05272,-0.05757,-0.06536,-0.07532000000000001,-0.08607,-0.09641000000000001,-0.10535,-0.11196,-0.11553,-0.11553,-0.11173,-0.10457,-0.09506,-0.08412,-0.07266,-0.06139000000000001,-0.050780000000000006,-0.04122000000000001,-0.03296,-0.025810000000000003,-0.01932,-0.01308,-0.00674,-0.00019,0.006470000000000001,0.01309,0.01948,0.02534,0.03035,0.034280000000000005,0.037000000000000005,0.03856,0.039110000000000006,0.03885,0.03797,0.03669,0.035160000000000004,0.033510000000000005,0.0318,0.03008,0.02838,0.02676,0.02528,0.02398,0.02277,0.0215,0.02007,0.018230000000000003,0.01567,0.01203,0.006940000000000001,0.00027,-0.00771,-0.016630000000000002,-0.02603,-0.03524,-0.04354,-0.05011,-0.05416000000000001,-0.05528,-0.05367,-0.049740000000000006,-0.04403000000000001,-0.0373,-0.03034,-0.024010000000000004,-0.01918,-0.0163,-0.01526,-0.015770000000000003,-0.01737,-0.01948,-0.021550000000000003,-0.02307,-0.023510000000000003,-0.02279,-0.02127,-0.01943,-0.017830000000000002,-0.01708,-0.017650000000000002,-0.01992,-0.02416,-0.03017,-0.03731,-0.0449,-0.05224,-0.05861,-0.0635,-0.06654,-0.06749000000000001,-0.06659000000000001,-0.0645,-0.06185,-0.059300000000000005,-0.05747000000000001,-0.0568,-0.05759,-0.05997,-0.0636,-0.06775,-0.07175000000000001,-0.07495,-0.07667,-0.07643000000000001,-0.07384,-0.06873,-0.06151,-0.05305000000000001,-0.04422,-0.035840000000000004,-0.028780000000000003,-0.02377,-0.0215,-0.02246,-0.02645,-0.0327,-0.04042,-0.048830000000000005,-0.05707,-0.0644,-0.07004,-0.07335000000000001,-0.07432000000000001,-0.07352,-0.07157000000000001,-0.06909000000000001,-0.06676,-0.06518,-0.06501000000000001,-0.06686,-0.07082000000000001,-0.07644,-0.08321,-0.09056,-0.09796,-0.10494,-0.11097,-0.11547,-0.11814,-0.11899,-0.11815,-0.11584,-0.11214,-0.10696,-0.10034,-0.09255,-0.08411,-0.07571,-0.06793,-0.0614,-0.05706000000000001,-0.05596,-0.05910000000000001,-0.06647,-0.07692,-0.08958,-0.10332,-0.11788,-0.13238,-0.14227,-0.14341,-0.13274000000000002,-0.10954,-0.07826000000000001,-0.04391,-0.00955,0.02051,0.03989,0.04279,0.02313,-0.021210000000000003,-0.08398000000000001,-0.15812,-0.23776,-0.31571000000000005,-0.38512,-0.43943,-0.47049,-0.4742400000000001,-0.45476000000000005,-0.4171,-0.36662000000000006,-0.30970000000000003,-0.25021000000000004,-0.19233,-0.14233,-0.10409,-0.0772,-0.06055000000000001,-0.05165,-0.04749,-0.04796,-0.05238,-0.05901000000000001,-0.06672,-0.07393000000000001,-0.07949,-0.08327000000000001,-0.08532,-0.08575,-0.08495000000000001,-0.08345000000000001,-0.08188,-0.08081,-0.08055000000000001,-0.0812,-0.08265,-0.08472,-0.08716,-0.08960000000000001,-0.09162,-0.09289,-0.09318,-0.09243,-0.09066,-0.08797,-0.08446,-0.08033000000000001,-0.0758,-0.07104,-0.06615,-0.06117,-0.05609000000000001,-0.050940000000000006,-0.04579,-0.04066,-0.035530000000000006,-0.030300000000000004,-0.02489,-0.01929,-0.0134,-0.00702,9e-05,0.00821,0.01741,0.02745,0.03803,0.04882,0.05935000000000001,0.06903000000000001,0.07713,0.08288000000000001,0.08573,0.08553,0.08232,0.07628,0.06774000000000001,0.05716,0.04518,0.03259,0.02013,0.008350000000000002,-0.0024,-0.01187,-0.01999,-0.02677,-0.03236,-0.03703,-0.04114,-0.04496000000000001,-0.04866,-0.05234,-0.055970000000000006,-0.05943,-0.06258000000000001,-0.06523000000000001,-0.06720000000000001,-0.06844,-0.06896000000000001,-0.06883,-0.06819,-0.06723000000000001,-0.06607,-0.06482,-0.06342,-0.061610000000000005,-0.059120000000000006,-0.055720000000000006,-0.05113,-0.04518,-0.03783,-0.029200000000000004,-0.01986,-0.01075,-0.0027800000000000004,0.0032600000000000003,0.00659,0.00666,0.0031300000000000004,-0.004090000000000001,-0.01434,-0.02628,-0.038590000000000006,-0.05007,-0.05956,-0.06617,-0.06919,-0.06809000000000001,-0.06318,-0.055540000000000006,-0.04632000000000001,-0.03661,-0.027510000000000003,-0.01989,-0.0146,-0.01246,-0.01368,-0.017820000000000003,-0.02432,-0.03254,-0.041760000000000005,-0.05129,-0.06033,-0.06794,-0.07345,-0.0766,-0.07734,-0.07581,-0.07233,-0.06738000000000001,-0.0617,-0.056240000000000005,-0.051960000000000006,-0.04956000000000001,-0.0495,-0.051980000000000005,-0.056900000000000006,-0.06386,-0.07222,-0.08103,-0.08919,-0.09578,-0.10014,-0.10189,-0.10099,-0.09770000000000002,-0.09259,-0.08648,-0.08047,-0.07563,-0.07273,-0.0723,-0.07459,-0.0795,-0.08667000000000001,-0.09545,-0.10472,-0.11322,-0.11987,-0.12383,-0.12451,-0.12171,-0.11554,-0.10645,-0.09561,-0.08453,-0.07457000000000001,-0.0669,-0.06242,-0.06146000000000001,-0.06392,-0.06919,-0.07577,-0.08172,-0.08541000000000001,-0.08557,-0.08123000000000001,-0.07221000000000001,-0.05907,-0.043190000000000006,-0.02755,-0.016030000000000003,-0.01195,-0.01793,-0.036230000000000005,-0.06816000000000001,-0.11395,-0.17267,-0.24025,-0.31035,-0.37701,-0.43495000000000006,-0.47923,-0.506,-0.51224,-0.49595000000000006,-0.45903,-0.40671,-0.34430000000000005,-0.27702000000000004,-0.20978,-0.14653000000000002,-0.09104000000000001,-0.04674,-0.01441,0.00755,0.021120000000000003,0.02849,0.03159,0.031720000000000005,0.03035,0.02898,0.028270000000000003,0.02808,0.02813,0.02798,0.027340000000000003,0.02619,0.0245,0.02228,0.019760000000000003,0.01737,0.01555,0.01468,0.01521,0.017470000000000003,0.02168,0.027920000000000004,0.03585,0.04477,0.05399,0.06287000000000001,0.07071000000000001,0.07686000000000001,0.08078,0.08209000000000001,0.081,0.07837000000000001,0.07509,0.07203000000000001,0.07012,0.07020000000000001,0.07307000000000001,0.07944000000000001,0.08939000000000001,0.10231,0.11746,0.134,0.15106,0.16783,0.18349,0.19715,0.20825,0.21663,0.22223,0.22514,0.22547000000000003,0.22332,0.21883,0.21222,0.20373,0.19359,0.18203,0.16927,0.15547000000000002,0.14078,0.1254,0.10954,0.09352,0.07776000000000001,0.06265000000000001,0.04854000000000001,0.035890000000000005,0.02523,0.017040000000000003,0.01176,0.009410000000000002,0.0096,0.01187,0.015700000000000002,0.02038,0.02506,0.028790000000000003,0.030570000000000003,0.029880000000000004,0.02685,0.02175,0.01505,0.007490000000000002,9e-05,-0.005900000000000001,-0.00908,-0.00842,-0.00367,0.00512,0.01763,0.03307,0.050280000000000005,0.06772,0.08351,0.09592,0.10381,0.1065,0.10374,0.09573000000000001,0.08322,0.0674,0.04995,0.03289,0.01802,0.0067,-0.00013,-0.00203,0.00095,0.0083,0.019080000000000003,0.031650000000000005,0.044210000000000006,0.05525000000000001,0.06362000000000001,0.06858,0.06983,0.06737,0.061430000000000005,0.05295,0.04317000000000001,0.033150000000000006,0.0238,0.01566,0.008990000000000001,0.003920000000000001,0.00055,-0.00136,-0.00214,-0.00214,-0.00159,-0.00051,0.00127,0.00389,0.00743,0.01178,0.01669,0.02186,0.02698,0.03161,0.03522,0.03736,0.037680000000000005,0.03626,0.033580000000000006,0.03011,0.02635,0.02287,0.02017,0.01866,0.01869,0.02008,0.02228,0.02476,0.02698,0.02848,0.02899,0.02834,0.02655,0.024100000000000003,0.02179,0.02037,0.02055,0.02278,0.0271,0.033370000000000004,0.04121,0.049940000000000005,0.05893,0.06768,0.07576,0.08330000000000001,0.09106,0.10013,0.11198,0.1278,0.14786,0.17197,0.1995,0.22903,0.2583,0.28432,0.30334,0.31169,0.30684,0.28731,0.25273,0.20354,0.14123000000000002,0.06857,-0.01036,-0.08966,-0.16286,-0.22455,-0.27053000000000005,-0.29738000000000003,-0.30287,-0.28598,-0.24696,-0.18966,-0.12045,-0.04531,0.03033,0.10173,0.16532000000000002,0.218,0.25723,0.28334000000000004,0.2989,0.30655000000000004,0.30891,0.30797,0.30481,0.30055000000000004,0.29623000000000005,0.29198,0.2873,0.28173000000000004,0.27481,0.26658000000000004,0.25757,0.24834000000000003,0.23948,0.23155,0.22488,0.21965,0.21598,0.2137,0.21254,0.21213,0.21211,0.21232,0.21286,0.21393,0.21575,0.2186,0.22268,0.22811,0.23494,0.24292,0.25157,0.26037000000000005,0.26887,0.27668000000000004,0.28367000000000003,0.28981,0.29519,0.30017000000000005,0.30523,0.31075,0.31705,0.32420000000000004,0.33201,0.3401,0.34797,0.35493,0.36028000000000004,0.36348,0.36412000000000005,0.36204,0.35736,0.35037,0.34148,0.33128,0.32037000000000004,0.30923,0.29829,0.28775,0.27767,0.26804,0.25884,0.25013,0.24206,0.23483,0.22859,0.22362,0.22021,0.21858,0.21879,0.22048,0.22293,0.2254,0.22726,0.22786,0.22669000000000003,0.22334,0.21759,0.20986,0.20109,0.19219,0.18395,0.17708,0.17209000000000002,0.16941,0.16933,0.17155,0.17528,0.17973,0.18415,0.18795,0.19071,0.19197,0.19129,0.18854,0.18386,0.17746,0.16959,0.16041000000000002,0.15001,0.1386,0.12649,0.11413,0.10199,0.09048,0.07996,0.07076,0.06317,0.05739,0.05349,0.05127,0.050350000000000006,0.05039,0.05111,0.05226,0.053750000000000006,0.05546,0.057330000000000006,0.05945,0.061950000000000005,0.06494000000000001,0.06847,0.07252,0.07702,0.08186,0.08695000000000001,0.09213,0.09722,0.1021,0.10664,0.11074,0.11429,0.11721,0.11945,0.121,0.12199,0.12252,0.12273,0.12279,0.12292,0.12333,0.1242,0.12557,0.12733,0.12934,0.13145,0.13341,0.13493000000000002,0.1357,0.13544,0.13409,0.13185000000000002,0.12893,0.12561,0.12224,0.11929,0.1173,0.11683,0.11828,0.12169,0.12702000000000002,0.13412,0.14275,0.15246,0.16263000000000002,0.17237000000000002,0.1807,0.18677,0.18993,0.18975,0.18583,0.17802
-0.037750000000000006,0.040740000000000005,0.10415,0.04343,-0.01635,0.01213,0.026310000000000004,-0.008860000000000002,-0.01294,-0.00555,-0.0014000000000000002,-0.006730000000000001,-0.0132,-0.0166,-0.02058,-0.02635,-0.03223,-0.03721,-0.04068,-0.041990000000000006,-0.04068,-0.036550000000000006,-0.029960000000000004,-0.02188,-0.01336,-0.005370000000000001,0.00122,0.00564,0.007180000000000001,0.0053,0.00023,-0.007050000000000001,-0.0155,-0.024100000000000003,-0.031810000000000005,-0.037680000000000005,-0.04077,-0.04028,-0.0362,-0.029370000000000004,-0.02074,-0.01128,-0.00207,0.00593,0.01176,0.01451,0.01398,0.01075,0.005520000000000001,-0.00093,-0.00775,-0.01418,-0.0195,-0.022990000000000003,-0.024530000000000003,-0.0246,-0.02373,-0.022480000000000003,-0.02152,-0.02137,-0.02252,-0.02534,-0.02965,-0.03475,-0.03994,-0.04452,-0.04774,-0.04896,-0.04762,-0.043300000000000005,-0.03628,-0.02746,-0.017720000000000003,-0.00795,0.00092,0.00805,0.01261,0.01389,0.01182,0.006980000000000001,-1e-05,-0.00846,-0.017650000000000002,-0.02687,-0.035300000000000005,-0.04207,-0.04671,-0.04914,-0.04937,-0.0475,-0.04376,-0.038520000000000006,-0.03234,-0.02595,-0.01989,-0.01433,-0.00929,-0.00466,-6.000000000000001e-05,0.00523,0.01218,0.022,0.035710000000000006,0.05369,0.07594,0.10209,0.13132000000000002,0.16239,0.19361,0.22285,0.24778,0.26641000000000004,0.27726,0.27948,0.27267,0.25692000000000004,0.23281,0.20149000000000003,0.16508,0.12622,0.08729,0.05027,0.01678,-0.01201,-0.03515,-0.05193,-0.06261,-0.06824000000000001,-0.06991,-0.06864,-0.06525,-0.060230000000000006,-0.054180000000000006,-0.04775,-0.04139,-0.035370000000000006,-0.02986,-0.02497,-0.020950000000000003,-0.01813,-0.016790000000000003,-0.01712,-0.01906,-0.02228,-0.0265,-0.03137,-0.03658,-0.04177,-0.04655,-0.05049000000000001,-0.053320000000000006,-0.05498,-0.055450000000000006,-0.05481,-0.05313,-0.050530000000000005,-0.04719,-0.043460000000000006,-0.03982,-0.036820000000000006,-0.034910000000000004,-0.03445,-0.035750000000000004,-0.03903,-0.04438,-0.05172,-0.06056,-0.07011,-0.07961,-0.08839000000000001,-0.09586,-0.10156,-0.10519,-0.10656,-0.10594,-0.10397,-0.10122,-0.09824,-0.09544,-0.0931,-0.09134,-0.09019,-0.08926,-0.08792000000000001,-0.08559000000000001,-0.08178,-0.0761,-0.06829,-0.05825,-0.04601,-0.03209,-0.017380000000000003,-0.0027,0.01115,0.02341,0.033350000000000005,0.04037,0.04395,0.04418,0.04175,0.03737,0.031790000000000006,0.0259,0.02063,0.01694,0.01574,0.01735,0.02137,0.02731,0.034550000000000004,0.04224000000000001,0.04938000000000001,0.054880000000000005,0.05763000000000001,0.057150000000000006,0.05381,0.0481,0.04066,0.032470000000000006,0.02466,0.01852,0.01538,0.015860000000000003,0.01964,0.02618,0.03474,0.044300000000000006,0.05363,0.06133,0.0659,0.06647,0.06311,0.05619,0.04633,0.03441,0.02141,0.008570000000000001,-0.00268,-0.01129,-0.01678,-0.01899,-0.018060000000000003,-0.01425,-0.00787,0.0005700000000000001,0.01042,0.02084,0.03104,0.04042,0.04853,0.05491000000000001,0.05901000000000001,0.06031,0.05834,0.05317,0.045410000000000006,0.03565,0.0245,0.01293,0.00207,-0.00689,-0.01248,-0.01449,-0.01342,-0.00858,0.00013,0.01355,0.032260000000000004,0.05262000000000001,0.07106000000000001,0.08372,0.08725,0.08368,0.07546,0.06465,0.05347,0.041,0.02609,0.008990000000000001,-0.00892,-0.02557,-0.03831,-0.0446,-0.04517,-0.04162,-0.03667,-0.035370000000000006,-0.037590000000000005,-0.03939,-0.03635,-0.02219,0.00134,0.02465,0.039,0.03631,0.017640000000000003,-0.00659,-0.0274,-0.03645,-0.03025,-0.01138,0.01861,0.05734,0.10152,0.14885,0.19619,0.23924,0.27390000000000003,0.29663,0.3042,0.29621,0.27482,0.24182,0.19972,0.15061000000000002,0.09638,0.041990000000000006,-0.00777,-0.04875,-0.07832,-0.09879,-0.11283,-0.12297,-0.13185000000000002,-0.13881,-0.14338,-0.14594,-0.14632,-0.1455,-0.14432,-0.14293,-0.14168,-0.14087000000000002,-0.14081,-0.14178,-0.14389,-0.14715,-0.15155,-0.1571,-0.16373,-0.17116,-0.17893,-0.18648,-0.19325,-0.19884,-0.20299,-0.20549,-0.20629,-0.20553,-0.20354,-0.20097,-0.1986,-0.1971,-0.19697,-0.19858,-0.20211,-0.20766,-0.21518,-0.22434,-0.23461,-0.24553,-0.25670000000000004,-0.26789,-0.27903,-0.29005000000000003,-0.30089000000000005,-0.31146,-0.32159000000000004,-0.33104,-0.33959,-0.34678000000000003,-0.35207000000000005,-0.35490000000000005,-0.35476,-0.35147,-0.34526,-0.3365,-0.32566,-0.31339,-0.30047,-0.2878,-0.27636000000000005,-0.26691000000000004,-0.25982,-0.25528,-0.25331000000000004,-0.25376000000000004,-0.25631000000000004,-0.26043,-0.26538,-0.27030000000000004,-0.27436000000000005,-0.27691000000000004,-0.27748,-0.27576,-0.27166,-0.26529,-0.25702,-0.24765,-0.23822,-0.22961,-0.22256,-0.21765,-0.21524,-0.21545000000000003,-0.21819,-0.22275000000000003,-0.2281,-0.23337,-0.23756,-0.23909,-0.23984,-0.24118000000000003,-0.23866,-0.2242,-0.201,-0.26235,-0.18898,-0.2049,-0.20087,-0.22579,-0.26901,-0.11623,-0.28087,-0.24467,-0.22663,-0.23151,-0.23812,-0.23485000000000003,-0.22592,-0.2175,-0.20864,-0.19992,-0.19254,-0.18716,-0.18411,-0.18352,-0.18536,-0.18904,-0.19362,-0.19819,-0.20198,-0.2045,-0.20563,-0.20538,-0.20391,-0.20165,-0.19918,-0.19699,-0.19547,-0.19471,-0.19444,-0.19427,-0.19364,-0.19193,-0.18861,-0.1833,-0.17581000000000002,-0.1662,-0.15479,-0.14217,-0.12906,-0.11639,-0.1051,-0.09597,-0.08957000000000001,-0.08635000000000001,-0.08656000000000001,-0.09025,-0.09731,-0.10714,-0.11875,-0.13118,-0.14352,-0.15479,-0.16401,-0.17025,-0.17266,-0.171,-0.16581,-0.15773,-0.14747,-0.13619,-0.12528,-0.1162,-0.11046,-0.10855,-0.1096,-0.11248,-0.11586,-0.11764,-0.11524,-0.10593,-0.08681000000000001,-0.05668,-0.016620000000000003,0.03161,0.08569,0.14228,0.1975,0.24693,0.28571,0.31044000000000005,0.32002,0.31437000000000004,0.29440000000000005,0.26202000000000003,0.21972,0.17084,0.11942,0.06933,0.023420000000000003,-0.01631,-0.04871,-0.07343000000000001,-0.09077,-0.10156,-0.10717,-0.10943,-0.11002,-0.11016,-0.11068,-0.11172,-0.11291,-0.1137,-0.11339,-0.11131,-0.10719,-0.10102,-0.09301000000000001,-0.0839,-0.07481,-0.06695000000000001,-0.06157000000000001,-0.0594,-0.060390000000000006,-0.06422,-0.0704,-0.07801000000000001,-0.08587,-0.09271,-0.09716,-0.09851,-0.09695,-0.09292,-0.08708,-0.08047,-0.07427,-0.0698,-0.06846000000000001,-0.07100000000000001,-0.0773,-0.08695000000000001,-0.09933,-0.11348,-0.12828,-0.14253,-0.15495,-0.16483,-0.17218000000000003,-0.17724,-0.18042,-0.18243,-0.18406,-0.18615,-0.18956,-0.19452,-0.20056,-0.20706,-0.21333,-0.21841,-0.22129,-0.221,-0.21662,-0.20802,-0.19599,-0.18145,-0.16547,-0.14934,-0.13434,-0.12183,-0.11312,-0.10882,-0.1087,-0.11227,-0.11886,-0.12761,-0.13768000000000002,-0.14803000000000002,-0.15758000000000003,-0.16549000000000003,-0.17142,-0.17519,-0.17685,-0.17652,-0.17442,-0.17091,-0.16652,-0.16189,-0.1577,-0.15448,-0.15259,-0.15237,-0.15402,-0.1576,-0.16295,-0.16949,-0.17624,-0.1823,-0.18688,-0.18921,-0.18866,-0.18478,-0.17728000000000002,-0.16662,-0.15386000000000002,-0.14009000000000002,-0.12635,-0.11366,-0.10289,-0.09480000000000001,-0.09003000000000001,-0.08849000000000001,-0.08942000000000001,-0.09205,-0.09554,-0.09912,-0.10215,-0.10401,-0.10418,-0.10259,-0.09963,-0.09572,-0.09127,-0.08668,-0.08217,-0.07797000000000001,-0.07426,-0.07101,-0.06799000000000001,-0.06498000000000001,-0.061770000000000005,-0.05824000000000001,-0.05444,-0.05041,-0.04623000000000001,-0.04196,-0.03754,-0.03291,-0.028,-0.02253,-0.016120000000000002,-0.008320000000000001,0.00129,0.01285,0.02603,0.04039,0.05544,0.07045000000000001,0.08459000000000001,0.09692,0.10645,0.11258,0.11532,0.11491,0.11176,0.1065,0.09989,0.09288,0.08663000000000001,0.08217,0.08017,0.08105000000000001,0.08502000000000001,0.09209,0.10202,0.11433,0.12824000000000002,0.14281000000000002,0.15722000000000003,0.17085,0.18331,0.19445,0.20447,0.21387,0.22351,0.23465,0.24857,0.26621,0.28816,0.31476000000000004,0.34595000000000004,0.38121,0.4195,0.45871000000000006,0.49608,0.52917,0.5558700000000001,0.5742700000000001,0.5828500000000001,0.5805100000000001,0.5666,0.54213,0.50956,0.47136000000000006,0.43,0.38789,0.34712000000000004,0.30978,0.27792,0.25248000000000004,0.23336,0.22018,0.21234,0.20924,0.21047,0.21536,0.22306,0.2327,0.24348,0.25470000000000004,0.26581000000000005,0.27624000000000004,0.28539000000000003,0.29275,0.29788000000000003,0.30072000000000004,0.30157,0.30077000000000004,0.29863,0.29555000000000003,0.29187,0.28797,0.28426,0.28090000000000004,0.27778,0.27475000000000005,0.27161,0.26809,0.26395,0.25894,0.25285,0.24573000000000003,0.23794,0.22987,0.22195,0.21469,0.20861,0.20414,0.20167,0.20112,0.20194,0.20357,0.2054,0.20673,0.20689,0.20527,0.20134,0.1952,0.18756,0.17919,0.17093000000000003,0.1637,0.15836,0.15574,0.1566,0.16108,0.16860000000000003,0.17849,0.18992,0.20201,0.21399,0.22501,0.23424000000000003,0.24119,0.24583,0.24826,0.24873,0.2475,0.24476000000000003,0.24077,0.23585000000000003,0.23047,0.22508000000000003,0.22011,0.21589,0.21277,0.21115,0.21135,0.21361,0.2177,0.22302,0.22891000000000003,0.23477,0.23992,0.24377,0.24581,0.24563,0.24340000000000003,0.23984,0.23572,0.23182,0.2289,0.22758000000000003,0.22834,0.23153,0.23684,0.24343,0.25042000000000003,0.25698000000000004,0.26229,0.26579,0.26706,0.26589,0.26270000000000004,0.25847000000000003,0.25415000000000004,0.25062,0.24868,0.24886,0.25153000000000003,0.25685,0.26432,0.27291000000000004,0.28164,0.2896,0.29599000000000003,0.30032000000000003,0.30218,0.30139000000000005,0.29831,0.29379000000000005,0.2886,0.2835,0.27908000000000005,0.27568000000000004,0.27354,0.27281,0.27328,0.27452000000000004,0.27611,0.2777,0.27908000000000005,0.28026,0.28130000000000005,0.28232,0.28356000000000003,0.28523000000000004,0.28750000000000003,0.29045000000000004,0.29406000000000004,0.29819,0.30263,0.30713,0.31132000000000004,0.3149,0.31761,0.31927000000000005,0.31968,0.31864000000000003,0.31604000000000004,0.31183000000000005,0.30627000000000004,0.29996,0.29348,0.28741,0.28256000000000003,0.27984000000000003,0.28016,0.28431,0.29231,0.30322000000000005,0.31597,0.3294,0.34185000000000004,0.35143,0.35623000000000005,0.35442,0.34565,0.33131000000000005,0.31317,0.29325,0.27428,0.25921,0.25114,0.25313,0.26628,0.28925,0.32009000000000004,0.3563,0.39467,0.43182,0.46411,0.48776,0.5007,0.50299,0.49549,0.4796800000000001,0.45759000000000005,0.43129000000000006,0.40311,0.37558,0.35039000000000003,0.32805,0.30859000000000003,0.29165,0.27658000000000005,0.26286000000000004,0.24996,0.23736,0.2251,0.21371,0.20385,0.19624,0.19164,0.19059,0.19334,0.1999,0.20949,0.22075,0.23236,0.24306,0.25169,0.25743000000000005,0.25966,0.25809000000000004,0.25325000000000003,0.24631,0.23838,0.23049,0.22351,0.21801,0.21439,0.21289,0.2131,0.21412,0.21512,0.21533,0.21415,0.21121,0.2062,0.19892,0.18964,0.17896,0.16751000000000002,0.1559,0.14463,0.13408,0.12464,0.11671,0.11051,0.10608,0.10337,0.10231,0.10284,0.10498,0.10867,0.11373,0.11982,0.12651,0.13341,0.14019,0.14646,0.15186000000000002,0.15604,0.15878,0.16013000000000002,0.16047,0.16015,0.15952000000000002,0.15898,0.15893,0.15977000000000002,0.16192,0.16548,0.17032000000000003,0.17623000000000003,0.183,0.19032,0.19789,0.20531,0.21216,0.2182,0.2234,0.22778,0.23146,0.23459,0.23744,0.24031,0.24358,0.24756000000000003,0.25235,0.25797000000000003,0.26437,0.27143,0.27893,0.28659,0.29405000000000003,0.30095000000000005,0.30707,0.31224,0.3164,0.31955,0.32174,0.32312,0.32388,0.32435,0.32488,0.32576000000000005,0.32724000000000003,0.32952000000000004,0.33275000000000005,0.33705,0.34247000000000005,0.34887,0.35598,0.36351000000000006,0.37119,0.37876,0.386,0.39271000000000006,0.39872,0.404,0.40864000000000006,0.41278,0.41652000000000006,0.4200100000000001,0.42333,0.42657000000000006,0.42977,0.43291,0.4358300000000001,0.43841,0.44052,0.44202,0.44275,0.44255000000000005,0.44131,0.43901,0.43585,0.4320000000000001,0.42769,0.4232,0.41892,0.41531,0.41288,0.41199,0.41266,0.41482,0.41831,0.42276,0.42759,0.43203,0.43512000000000006,0.43594,0.43394,0.42879000000000006,0.42038,0.4089100000000001,0.39498000000000005,0.37955000000000005,0.36393,0.34971,0.33829000000000004,0.33077,0.32791000000000003,0.33002000000000004,0.33683,0.34768000000000004,0.36138,0.37589000000000006,0.38916,0.39970000000000006,0.40624,0.4089,0.40836000000000006,0.40395,0.39618,0.3853200000000001,0.37213,0.36207,0.35950000000000004,0.36908,0.39493000000000006,0.43344,0.48030000000000006,0.5298,0.57435,0.6120000000000001,0.64149,0.6604000000000001,0.6675300000000001,0.6603600000000001,0.6371100000000001,0.59989,0.55313,0.50131,0.44872000000000006,0.39942000000000005,0.35685000000000006,0.32431000000000004,0.3047,0.29808,0.30191,0.31343000000000004,0.32967,0.34759,0.36452,0.37765,0.38418,0.38304,0.37499,0.36116,0.34299,0.32213,0.30009,0.27864,0.25970000000000004,0.24431,0.23244,0.22373,0.21755,0.213,0.20916,0.2049,0.19898,0.19061,0.17965,0.16624000000000003,0.15074,0.13371000000000002,0.1158,0.09779,0.08056,0.06476000000000001,0.05067000000000001,0.038360000000000005,0.027750000000000004,0.01864,0.0108,0.00396,-0.00224,-0.00813,-0.014,-0.02003,-0.02634,-0.03304,-0.04032,-0.04839,-0.05747000000000001,-0.06763000000000001,-0.07874,-0.09056,-0.10282,-0.11514,-0.12701,-0.13778,-0.14666,-0.15293,-0.15613,-0.156,-0.15251,-0.14578000000000002,-0.13615000000000002,-0.12416,-0.11064,-0.09673,-0.08363000000000001,-0.07235000000000001,-0.06363,-0.05805,-0.055900000000000005,-0.05727,-0.062000000000000006,-0.06934,-0.07821,-0.08763000000000001,-0.09675,-0.10497,-0.11198,-0.1176,-0.12179,-0.12493,-0.1276,-0.13033,-0.13355,-0.13743000000000002,-0.1418,-0.14642000000000002,-0.15094,-0.15494000000000002,-0.15812,-0.16030000000000003,-0.16139,-0.16165,-0.16159,-0.16187,-0.16326,-0.16637,-0.17142,-0.17842000000000002,-0.18722,-0.19734,-0.20806,-0.2185,-0.22759,-0.23446,-0.2387,-0.24011,-0.23877,-0.23503,-0.22939,-0.22257,-0.2155,-0.20912,-0.20424,-0.20143,-0.201,-0.20316,-0.20797,-0.21536,-0.2251,-0.23660000000000003,-0.24902,-0.26158000000000003,-0.27364000000000005,-0.28455,-0.29371,-0.30050000000000004,-0.30439000000000005,-0.30531,-0.30375,-0.30025,-0.29543,-0.29002,-0.28481,-0.28068000000000004,-0.27859,-0.27902000000000005,-0.28185000000000004,-0.28675,-0.29325,-0.30065,-0.30806,-0.31449000000000005,-0.31884,-0.32051,-0.31963,-0.31661,-0.31204000000000004,-0.30688000000000004,-0.30232000000000003,-0.29965,-0.3003,-0.30508,-0.31388000000000005,-0.32625000000000004,-0.3415,-0.35842,-0.37559,-0.39138,-0.40406,-0.41261,-0.41704,-0.41774000000000006,-0.41535000000000005,-0.41114000000000006,-0.4066900000000001,-0.40376,-0.40421,-0.40894,-0.4174,-0.42864,-0.44141,-0.45374,-0.46335,-0.46771,-0.46411,-0.45108,-0.42892,-0.39859000000000006,-0.36166,-0.32031000000000004,-0.27703,-0.23476,-0.19687,-0.16627,-0.14483,-0.13374,-0.13344,-0.14399,-0.16526,-0.1966,-0.23697,-0.28444,-0.33659,-0.39121000000000006,-0.44637,-0.50021,-0.5509200000000001,-0.5966600000000001,-0.63556,-0.6666700000000001,-0.6900200000000001,-0.7059300000000001,-0.7149200000000001,-0.71769,-0.7151000000000001,-0.7084400000000001,-0.69942,-0.6898200000000001,-0.68113,-0.6744800000000001,-0.67069,-0.6703300000000001,-0.6736700000000001,-0.68066,-0.69086,-0.7032900000000001,-0.7167600000000001,-0.73027,-0.74301,-0.75441,-0.76411,-0.77187,-0.77761,-0.7816200000000002,-0.78444,-0.78655,-0.78838,-0.7903000000000001,-0.79259,-0.79559,-0.7996200000000001,-0.80486,-0.8113300000000001,-0.81901,-0.82783,-0.8376300000000002,-0.8481900000000001,-0.85918,-0.87023,-0.8810500000000001,-0.8914400000000001,-0.90124,-0.9104500000000002,-0.91939,-0.92771,-0.9352100000000002,-0.94342,-0.95462,-0.96798,-0.9594600000000002,-0.98447,-0.98667,-0.98915,-0.99189,-0.9920500000000002,-0.9883,-0.98154,-0.97292,-0.96289,-0.95221,-0.94172,-0.9322,-0.92443,-0.91876,-0.91507,-0.91319,-0.91279,-0.91356,-0.91531,-0.91785,-0.92106,-0.92501,-0.92984,-0.93567,-0.94256,-0.95048,-0.95918,-0.96831,-0.97736,-0.98564,-0.99253,-0.99759,-1.00056,-1.00134,-1.00002,-0.99691,-0.9925,-0.98762,-0.9831700000000002,-0.97985,-0.97818,-0.97852,-0.98105,-0.98581,-0.99268,-1.00109,-1.01028,-1.01958,-1.02845,-1.03643,-1.04324,-1.04862,-1.05242,-1.05487,-1.05643,-1.05752,-1.05849,-1.05966,-1.06123,-1.06338,-1.06618,-1.06935,-1.07234,-1.07464,-1.07588,-1.07562,-1.07354,-1.0694,-1.06313,-1.05528,-1.04692,-1.0391,-1.03274,-1.02884,-1.0283,-1.03189,-1.04025,-1.0531,-1.06935,-1.08779,-1.10721,-1.12636,-1.14412,-1.15935,-1.17091,-1.17834,-1.18187,-1.18191,-1.179,-1.17366,-1.16629,-1.15745,-1.1478,-1.13798,-1.12857,-1.12001,-1.11264,-1.10687,-1.10315,-1.10186,-1.10325,-1.10718,-1.11311,-1.12047,-1.12871,-1.13717,-1.1452,-1.15206,-1.15702,-1.15978,-1.16047,-1.15935,-1.15674,-1.15305,-1.14881,-1.14467,-1.14145,-1.1397,-1.13954,-1.14087,-1.14341,-1.14676,-1.15036,-1.15331,-1.15436,-1.15195,-1.14453,-1.13096,-1.11055,-1.08263,-1.04683,-1.00333,-0.9529700000000002,-0.8982700000000001,-0.84308,-0.79098,-0.74516,-0.7089000000000001,-0.68508,-0.67612,-0.68384,-0.70733,-0.74316,-0.7877,-0.83727,-0.88804,-0.93657,-0.97947,-1.01357,-1.03792,-1.05382,-1.063,-1.06745,-1.06929,-1.0703,-1.07237,-1.07735,-1.08583,-1.09711,-1.11024,-1.12413,-1.13756,-1.14955,-1.15922,-1.16584,-1.16967,-1.1719400000000002,-1.1739400000000002,-1.17692,-1.18223,-1.19101,-1.2042,-1.2225,-1.2453200000000002,-1.27087,-1.29726,-1.32264,-1.34505,-1.36276,-1.37411,-1.37755,-1.37273,-1.36044,-1.3417,-1.3176500000000002,-1.28952,-1.2584,-1.22549,-1.19205,-1.15874,-1.12562,-1.09255,-1.05925,-1.02541,-0.99073,-0.95486,-0.91736,-0.87801,-0.8369,-0.79419,-0.7501700000000001,-0.7052,-0.6596500000000001,-0.6139600000000001,-0.5685800000000001,-0.52386,-0.48004,-0.43728000000000006,-0.39571,-0.35538,-0.31632000000000005,-0.27851000000000004,-0.24195,-0.20672,-0.17299,-0.14094,-0.11074,-0.08259000000000001,-0.05668,-0.03316,-0.01218,0.0063100000000000005,0.02251,0.036660000000000005,0.04901,0.05984,0.06938000000000001,0.07790000000000001,0.08563000000000001,0.09273,0.0992,0.10502,0.11019,0.11478,0.11904,0.12322,0.12762,0.13253,0.13823,0.14502,0.15327,0.16315,0.17458,0.1874,0.20136,0.21663,0.23398,0.25438,0.27895000000000003,0.30901,0.34614,0.39224,0.4495400000000001,0.52017,0.6057800000000001,0.7074600000000001,0.82569,0.96075,1.11251,1.28024,1.46253,1.65653,1.85844,2.0645900000000004,2.27156,2.47611,2.67537,2.86663,3.0474300000000003,3.2165600000000003,3.37386,3.5194,3.65339,3.77588,3.88672,3.98601,4.074070000000001,4.151400000000001,4.21872,4.276800000000001,4.326490000000001,4.3688400000000005,4.404990000000001,4.43614,4.4634100000000005,4.48767,4.50954,4.529610000000001,4.5485500000000005,4.56672,4.58432,4.60155,4.618720000000001,4.636900000000001,4.65796,4.683660000000001,4.715470000000001,4.755450000000001,4.806080000000001,4.86974,4.948740000000001,5.04295,5.14941,5.264500000000001,5.384110000000001,5.503430000000001,5.61716,5.719110000000001,5.802320000000001,5.8612,5.892580000000001,5.89482,5.86788,5.81216,5.72872,5.62037,5.4916,5.34994,5.20476,5.064590000000001,4.93693,4.8288,4.745950000000001,4.6930700000000005,4.674060000000001,4.68927,4.736330000000001,4.81224,4.912030000000001,5.02807,5.150510000000001,5.269340000000001,5.376620000000001,5.46935,5.549480000000001,5.61993,5.6827700000000005,5.738700000000001,5.78551,5.818560000000001,5.833060000000001,5.82361,5.786420000000001,5.72217,5.63133,5.51224,5.3611200000000006,5.171200000000001,4.938300000000001,4.6648700000000005,4.3580700000000006,4.02733,3.68371,3.3409500000000003,3.0159800000000003,2.72652,2.48457,2.29021,2.13254,1.99687,1.87116,1.7477300000000002,1.6222,1.49128,1.35251,1.2065,1.05717,0.90854,0.7625400000000001,0.61977,0.48138,0.35098,0.23434,0.13642,0.05849000000000001,-0.00272,-0.05338,-0.10223,-0.1586,-0.22849,-0.31391,-0.41142,-0.5128600000000001,-0.6114,-0.70372,-0.7900800000000001,-0.8737,-0.95689,-1.03971,-1.1212,-1.19989,-1.27489,-1.34599,-1.41284,-1.47484,-1.53127,-1.58146,-1.62514,-1.6624200000000002,-1.69351,-1.7186800000000002,-1.73843,-1.7533600000000003,-1.76418,-1.77163,-1.77624,-1.77831,-1.77806,-1.77562,-1.77106,-1.7645,-1.7560000000000002,-1.74567,-1.7336300000000002,-1.71995,-1.70473,-1.68809,-1.67007,-1.65056,-1.62942,-1.60648,-1.58179,-1.5558,-1.52909,-1.50233,-1.4764100000000002,-1.4523800000000002,-1.43147,-1.41504,-1.40421,-1.39952,-1.40117,-1.40905,-1.42275,-1.44163,-1.4646800000000002,-1.49055,-1.51761,-1.54429,-1.56937,-1.59197,-1.61146,-1.62752,-1.64011,-1.64953,-1.65675,-1.6630600000000002,-1.66958,-1.6772300000000002,-1.6866200000000002,-1.69802,-1.71161,-1.72737,-1.74484,-1.76331,-1.78219,-1.801,-1.81957,-1.83806,-1.85666,-1.8756,-1.89509,-1.91512,-1.93552,-1.95597,-1.97583,-1.99422,-2.01017,-2.0227000000000004,-2.03111,-2.03526,-2.03521,-2.03126,-2.02403,-2.0143600000000004,-2.00318,-1.99145,-1.97983,-1.96849,-1.95747,-1.94663,-1.93554,-1.92369,-1.91055,-1.89568,-1.87919,-1.8618,-1.84433,-1.82763,-1.81279,-1.80088,-1.7929,-1.7897,-1.79127,-1.79675,-1.80516,-1.81547,-1.82655,-1.83732,-1.84673,-1.85382,-1.85836,-1.86091,-1.86213,-1.86271,-1.86331,-1.86447,-1.86671,-1.87058,-1.87615,-1.88307,-1.89087,-1.89903,-1.90716,-1.91502,-1.92228,-1.92858,-1.93347,-1.93644,-1.93705,-1.93489,-1.92934,-1.91972,-1.90543,-1.88608,-1.86185,-1.83352,-1.80191,-1.76782,-1.73235,-1.6966500000000002,-1.66169,-1.62821,-1.59574,-1.5627000000000002,-1.52751,-1.48874,-1.44458,-1.3933000000000002,-1.33349,-1.26413,-1.1864,-1.10353,-1.01896,-0.93607,-0.8586300000000001,-0.79017,-0.7341200000000001,-0.6935500000000001,-0.66905,-0.6586000000000001,-0.6597400000000001,-0.66969,-0.6854,-0.7040700000000001,-0.72265,-0.73806,-0.7487600000000002,-0.7549,-0.75709,-0.7562700000000001,-0.7535,-0.7496600000000002,-0.7458800000000002,-0.74347,-0.74324,-0.74542,-0.7499800000000002,-0.75669,-0.76528,-0.7755700000000002,-0.7872300000000002,-0.79987,-0.8131100000000001,-0.8266500000000001,-0.8403100000000001,-0.85393,-0.86737,-0.88048,-0.89309,-0.90508,-0.91635,-0.92682,-0.93639,-0.945,-0.9526,-0.95914,-0.96466,-0.9692,-0.97286,-0.9758,-0.97816,-0.98006,-0.9816100000000002,-0.9829,-0.9840000000000002,-0.98495,-0.98559,-0.98555,-0.9844400000000002,-0.98185,-0.97733,-0.97044,-0.96067,-0.94747,-0.93044,-0.90944,-0.8844900000000001,-0.8558000000000001,-0.82362,-0.78833,-0.75047,-0.71082,-0.67047,-0.63063,-0.5923400000000001,-0.5564300000000001,-0.52363,-0.49453,-0.46953000000000006,-0.4488,-0.43176,-0.41727,-0.40420000000000006,-0.39151,-0.3782700000000001,-0.3637,-0.34704,-0.3276,-0.30527000000000004,-0.28047,-0.25372,-0.22562,-0.19663,-0.16709,-0.13743000000000002,-0.10815,-0.07976000000000001,-0.05268,-0.02727,-0.00385,0.01717,0.03526,0.049940000000000005,0.06076,0.06761,0.07072,0.07036,0.06695000000000001,0.06105000000000001,0.053340000000000005,0.04465,0.035960000000000006,0.02813,0.02182,0.01754,0.01561,0.01618,0.01924,0.024520000000000004,0.031540000000000006,0.03955,0.04762,0.05498,0.061070000000000006,0.06539,0.06767000000000001,0.0678,0.06589,0.06265000000000001,0.059300000000000005,0.05703,0.05689,0.05993,0.06712,0.07933000000000001,0.09734000000000001,0.12112,0.14973,0.1821,0.21703,0.25315000000000004,0.28902,0.32307,0.35358,0.37945,0.40047,0.41675,0.42868000000000006,0.43698,0.44261000000000006,0.44683000000000006,0.45116000000000006,0.4569,0.46469,0.47479,0.48713000000000006,0.50124,0.5163000000000001,0.5312,0.5445300000000001,0.55489,0.5613600000000001,0.5633900000000001,0.56081,0.55386,0.54312,0.5295000000000001,0.51419,0.49863,0.4841,0.47155,0.46163,0.4547,0.4508,0.44971000000000005,0.45094000000000006,0.45354000000000005,0.45638000000000006,0.45851,0.45920000000000005,0.45792,0.45442,0.44866000000000006,0.44084,0.43179000000000006,0.42271,0.41473,0.40886000000000006,0.40591,0.40634,0.41036000000000006,0.4179,0.42824,0.44032,0.45315000000000005,0.46585,0.47780000000000006,0.48884000000000005,0.4992,0.50953,0.52117,0.5357700000000001,0.5546300000000001,0.57869,0.6085900000000001,0.64436,0.68535,0.73023,0.77624,0.81979,0.85765,0.88712,0.90586,0.91222,0.90524,0.8847,0.85255,0.8123800000000002,0.76763,0.7215100000000002,0.6769200000000001,0.63605,0.60082,0.5728300000000001,0.55196,0.53676,0.52571,0.5172800000000001,0.5102500000000001,0.5039,0.49749,0.49031,0.48223,0.4735,0.4644,0.45524,0.44609,0.43677,0.42713,0.41695,0.40604,0.39428,0.3816000000000001,0.368,0.35359,0.33851000000000003,0.32301,0.30739000000000005,0.29207,0.2775,0.26409000000000005,0.25213,0.24195,0.23384,0.22806,0.22477,0.22388,0.22495,0.22754,0.23119,0.23542,0.23973,0.2436,0.24645000000000003,0.24789,0.24774,0.24598000000000003,0.24268,0.23792,0.23177000000000003,0.22443,0.21623,0.20776,0.19981,0.19313,0.18835,0.18617,0.18726,0.19227,0.20176,0.21579,0.23387,0.25539,0.27968000000000004,0.30597,0.3335,0.3613400000000001,0.3885,0.41421,0.4380500000000001,0.45978,0.47932,0.4967,0.51195,0.52532,0.5371600000000001,0.54805,0.5586500000000001,0.5695100000000001,0.58106,0.59369,0.60779,0.6236700000000001,0.64161,0.66154,0.68301,0.70559,0.72884,0.75225,0.7752500000000001,0.7971800000000001,0.8172600000000002,0.83495,0.8501,0.86272,0.8730000000000001,0.88128,0.88809,0.89426,0.90083,0.90898,0.91969,0.93369,0.95146,0.97319,0.99869,1.02748,1.05872,1.09122,1.12379,1.15545,1.18544,1.21339,1.23931,1.26349,1.28646,1.30896,1.33152,1.35442,1.37762,1.40075,1.42305,1.44358,1.46111,1.47428,1.48187,1.4829500000000002,1.47699,1.46375,1.44327,1.41579,1.38175,1.342,1.29768,1.24987,1.19958,1.14755,1.0944,1.04082,0.9876100000000002,0.9356500000000002,0.88587,0.8390900000000001,0.79603,0.75757,0.72464,0.69796,0.67796,0.66425,0.65566,0.6510100000000001,0.64907,0.6485200000000001,0.6480600000000001,0.64644,0.6424700000000001,0.6357900000000001,0.6268,0.61597,0.60382,0.59092,0.5777500000000001,0.56481,0.55256,0.54085,0.52891,0.5159400000000001,0.50109,0.48352000000000006,0.46259000000000006,0.43764,0.40812,0.37393,0.33546000000000004,0.29322000000000004,0.24786,0.19987,0.14946,0.09686,0.042330000000000007,-0.01368,-0.07025,-0.12644,-0.18131,-0.23349000000000003,-0.28128000000000003,-0.32277,-0.35587,-0.37923,-0.39266,-0.39654000000000006,-0.39175,-0.37965,-0.36207,-0.34149,-0.32103000000000004,-0.30408,-0.29356000000000004,-0.29173000000000004,-0.30002,-0.31946,-0.35050000000000003,-0.39283,-0.44537,-0.50541,-0.5691700000000001,-0.63327,-0.6947300000000001,-0.75096,-0.8,-0.84018,-0.87021,-0.89038,-0.90222,-0.90726,-0.90704,-0.90272,-0.8950300000000002,-0.8847800000000001,-0.8727600000000002,-0.8593600000000001,-0.8446500000000001,-0.82868,-0.8115000000000001,-0.79339,-0.77487,-0.75639,-0.73837,-0.72106,-0.7045,-0.6886500000000001,-0.6734600000000001,-0.65878,-0.64444,-0.6302800000000001,-0.61611,-0.6019100000000001,-0.58781,-0.5739700000000001,-0.5605600000000001,-0.5477000000000001,-0.5354300000000001,-0.52375,-0.5126200000000001,-0.50197,-0.49173000000000006,-0.48183,-0.47222,-0.46299,-0.45433,-0.44649000000000005,-0.43976,-0.43434000000000006,-0.43027,-0.4275,-0.42588,-0.42511,-0.42475,-0.42427,-0.42311,-0.42079000000000005,-0.41703,-0.41168,-0.40468,-0.39615000000000006,-0.38629,-0.3754,-0.3638,-0.35173000000000004,-0.33929000000000004,-0.32653000000000004,-0.31348000000000004,-0.30005000000000004,-0.28612000000000004,-0.27158000000000004,-0.25639,-0.2408,-0.22528,-0.21032,-0.19637,-0.18392,-0.17341,-0.1652,-0.15953,-0.15617,-0.15445,-0.15375000000000003,-0.15347000000000002,-0.15303,-0.15201,-0.15000000000000002,-0.14673,-0.14234000000000002,-0.13732,-0.13217,-0.12732,-0.1231,-0.1197,-0.11726,-0.11593,-0.11554,-0.11575,-0.11623,-0.11671,-0.11704,-0.11717,-0.11704,-0.11658,-0.11581,-0.11481,-0.11369,-0.11253,-0.11134,-0.11008,-0.10878,-0.10752,-0.10651,-0.106,-0.10622,-0.10735,-0.10963,-0.11327,-0.1184,-0.1251,-0.13324,-0.14254,-0.15272000000000002,-0.16352000000000003,-0.17468,-0.18598,-0.19718,-0.20807,-0.21856,-0.22866,-0.23838,-0.24774,-0.25677,-0.26549,-0.27395,-0.28218000000000004,-0.29021,-0.29801,-0.30560000000000004,-0.31295,-0.32,-0.32669000000000004,-0.33297000000000004,-0.33884000000000003,-0.34435000000000004,-0.34963000000000005,-0.35476,-0.35984000000000005,-0.36498,-0.37033,-0.37595,-0.38183000000000006,-0.38769,-0.39307,-0.39757,-0.40081000000000006,-0.40239,-0.40193,-0.39912,-0.39373,-0.386,-0.37650000000000006,-0.36585,-0.35462000000000005,-0.34341000000000005,-0.33281000000000005,-0.32344,-0.3159,-0.31042,-0.3068,-0.30476000000000003,-0.30394000000000004,-0.30396,-0.30442,-0.30473,-0.30417000000000005,-0.30204000000000003,-0.29779,-0.29103,-0.28154,-0.2691,-0.25360000000000005
